{
  "AcquisitionMatrixPE": 104,
  "AcquisitionNumber": 1,
  "AcquisitionTime": "13:58:6.297500",
  "BandwidthPerPixelPhaseEncode": 17.17,
  "BaseResolution": 104,
  "BodyPartExamined": "BRAIN",
  "CoilCombinationMethod": "Sum of Squares",
  "ConsistencyInfo": "N4_VE11C_LATEST_20160120",
  "ConversionSoftware": "dcm2niix",
  "ConversionSoftwareVersion": "v1.0.20211006",
  "DerivedVendorReportedEchoSpacing": 0.000560011,
  "DeviceSerialNumber": "167006",
  "DwellTime": 2.1e-06,
  "EchoTime": 0.037,
  "EchoTime1": 0.037,
  "EchoTime2": 0.001,
  "EchoTrainLength": 104,
  "EffectiveEchoSpacing": 0.000560011,
  "FlipAngle": 52,
  "HeudiconvVersion": "0.10.0",
  "ImageComments": "Unaliased MB4/PE3/LB",
  "ImageOrientationPatientDICOM": [0.998778, 0.0118291, 0.047987, -0.00104591, 0.975777, -0.218766],
  "ImageOrientationText": "Tra>Cor(-12.6)>Sag(2.8)",
  "ImageType": [
    "ORIGINAL",
    "PRIMARY",
    "P",
    "MB",
    "ND",
    "MOSAIC",
    "PHASE"
],
  "ImagingFrequency": 123.259,
  "InPlanePhaseEncodingDirectionDICOM": "COL",
  "InstitutionAddress": "Chemin Queen-Mary 4565,Montreal,District,CA,H3W 1W5",
  "InstitutionName": "IUGM",
  "InstitutionalDepartmentName": "Department",
  "MRAcquisitionType": "2D",
  "MagneticFieldStrength": 3,
  "Manufacturer": "Siemens",
  "ManufacturersModelName": "Prisma_fit",
  "MatrixCoilMode": "SENSE",
  "Modality": "MR",
  "MultibandAccelerationFactor": 4,
  "PartialFourier": 1,
  "PatientPosition": "HFS",
  "PercentPhaseFOV": 100,
  "PercentSampling": 100,
  "PhaseEncodingDirection": "j",
  "PhaseEncodingSteps": 104,
  "PhaseResolution": 1,
  "PixelBandwidth": 2290,
  "ProcedureStepDescription": "games^gamepad",
  "ProtocolName": "func_task-gamepad_run-1",
  "PulseSequenceDetails": "%CustomerSeq%\\cmrr_mbep2d_bold",
  "ReceiveCoilActiveElements": "HC1-7;NC1,2",
  "ReceiveCoilName": "HeadNeck_64",
  "ReconMatrixPE": 104,
  "RepetitionTime": 1.49,
  "SAR": 0.0545016,
  "ScanOptions": "FS",
  "ScanningSequence": "EP",
  "SequenceName": "epfid2d1_104",
  "SequenceVariant": "SK\\SS",
  "SeriesDescription": "func_task-gamepad_run-1",
  "SeriesNumber": 11,
  "ShimSetting": [641, -7236, -8777, 717, 45, -29, 96, -23],
  "SliceThickness": 2,
  "SliceTiming": [0, 0.7825, 0.0975, 0.8825, 0.195, 0.98, 0.2925, 1.0775, 0.3925, 1.175, 0.49, 1.2725, 0.5875, 1.3725, 0.685, 0, 0.7825, 0.0975, 0.8825, 0.195, 0.98, 0.2925, 1.0775, 0.3925, 1.175, 0.49, 1.2725, 0.5875, 1.3725, 0.685, 0, 0.7825, 0.0975, 0.8825, 0.195, 0.98, 0.2925, 1.0775, 0.3925, 1.175, 0.49, 1.2725, 0.5875, 1.3725, 0.685, 0, 0.7825, 0.0975, 0.8825, 0.195, 0.98, 0.2925, 1.0775, 0.3925, 1.175, 0.49, 1.2725, 0.5875, 1.3725, 0.685],
  "SoftwareVersions": "syngo MR E11",
  "SpacingBetweenSlices": 2,
  "StationName": "MRC35049",
  "TaskName": "gamepad",
  "TotalReadoutTime": 0.0576811,
  "TxRefAmp": 244.02,
  "WipMemBlock": "02eb6708-f305-4fdb-9ac2-1e94fbce1d75||Sequence: R016 ve11c/master r/e634e98; Dec 19 2017 11:00:25 by eja",
  "dcmmeta_affine": [
    [-1.9975558519363403, -0.0020918287336826324, 0.09882485121488571, 106.47161102294922],
    [-0.023658180609345436, 1.9515537023544312, -0.4368963837623596, -75.93792724609375],
    [0.09597404301166534, 0.4375314712524414, 1.9491934776306152, -58.396724700927734],
    [0.0, 0.0, 0.0, 1.0]
],
  "dcmmeta_reorient_transform": [
    [0.0, -1.0, 0.0, 103.0],
    [1.0, 0.0, 0.0, 0.0],
    [0.0, 0.0, 1.0, 0.0],
    [0.0, 0.0, 0.0, 1.0]
],
  "dcmmeta_shape": [104, 104, 60, 207],
  "dcmmeta_slice_dim": 2,
  "dcmmeta_version": 0.6,
  "global": {
    "const": {
      "AcquisitionMatrix": [104, 0, 0, 104],
      "AngioFlag": "N",
      "BitsAllocated": 16,
      "BitsStored": 16,
      "BodyPartExamined": "BRAIN",
      "Columns": 832,
      "EchoNumbers": 1,
      "EchoTime": 37.0,
      "EchoTrainLength": 104,
      "FlipAngle": 52.0,
      "HighBit": 15,
      "ImageOrientationPatient": [0.99877791242707, 0.01182909006643, 0.04798702195415, -0.001045914418, 0.97577684961343, -0.2187657327406],
      "ImagePositionPatient": [-832.60505057994, -844.04922961272, 110.99591883794],
      "ImageType": [
        "ORIGINAL",
        "PRIMARY",
        "P",
        "MB",
        "ND",
        "MOSAIC"
],
      "ImagedNucleus": "1H",
      "ImagingFrequency": 123.258926,
      "InPlanePhaseEncodingDirection": "COL",
      "LargestImagePixelValue": 4095,
      "MRAcquisitionType": "2D",
      "MagneticFieldStrength": 3.0,
      "Manufacturer": "SIEMENS",
      "ManufacturerModelName": "Prisma_fit",
      "Modality": "MR",
      "NumberOfAverages": 1.0,
      "NumberOfPhaseEncodingSteps": 104,
      "PercentPhaseFieldOfView": 100.0,
      "PercentSampling": 100.0,
      "PerformedProcedureStepStartTime": "135314.046000",
      "PhotometricInterpretation": "MONOCHROME2",
      "PixelBandwidth": 2290.0,
      "PixelRepresentation": 0,
      "PixelSpacing": [2.0, 2.0],
      "ProtocolName": "func_task-gamepad_run-1",
      "RepetitionTime": 1490.0,
      "RescaleIntercept": -4096.0,
      "RescaleSlope": 2.0,
      "RescaleType": "US",
      "Rows": 832,
      "SAR": 0.05450160683763,
      "SamplesPerPixel": 1,
      "ScanOptions": "FS",
      "ScanningSequence": "EP",
      "SequenceName": "epfid2d1_104",
      "SequenceVariant": [
        "SK",
        "SS"
],
      "SeriesDescription": "func_task-gamepad_run-1",
      "SeriesNumber": 11,
      "SeriesTime": "135936.165000",
      "SliceLocation": -35.063733117626,
      "SliceThickness": 2.0,
      "SmallestImagePixelValue": 0,
      "SoftwareVersions": "syngo MR E11",
      "SpacingBetweenSlices": 1.9999999910499,
      "SpecificCharacterSet": "ISO_IR 100",
      "StudyID": "1",
      "StudyTime": "135313.956000",
      "TransmitCoilName": "Body",
      "VariableFlipAngleFlag": "N",
      "WindowCenterWidthExplanation": "Algo1",
      "dBdt": 0.0},
    "slices": {}
  },
  "time": {
    "samples": {
      "AcquisitionNumber": [1, 2, 3, 4, 5, 6, 7, 8, 9, 10, 11, 12, 13, 14, 15, 16, 17, 18, 19, 20, 21, 22, 23, 24, 25, 26, 27, 28, 29, 30, 31, 32, 33, 34, 35, 36, 37, 38, 39, 40, 41, 42, 43, 44, 45, 46, 47, 48, 49, 50, 51, 52, 53, 54, 55, 56, 57, 58, 59, 60, 61, 62, 63, 64, 65, 66, 67, 68, 69, 70, 71, 72, 73, 74, 75, 76, 77, 78, 79, 80, 81, 82, 83, 84, 85, 86, 87, 88, 89, 90, 91, 92, 93, 94, 95, 96, 97, 98, 99, 100, 101, 102, 103, 104, 105, 106, 107, 108, 109, 110, 111, 112, 113, 114, 115, 116, 117, 118, 119, 120, 121, 122, 123, 124, 125, 126, 127, 128, 129, 130, 131, 132, 133, 134, 135, 136, 137, 138, 139, 140, 141, 142, 143, 144, 145, 146, 147, 148, 149, 150, 151, 152, 153, 154, 155, 156, 157, 158, 159, 160, 161, 162, 163, 164, 165, 166, 167, 168, 169, 170, 171, 172, 173, 174, 175, 176, 177, 178, 179, 180, 181, 182, 183, 184, 185, 186, 187, 188, 189, 190, 191, 192, 193, 194, 195, 196, 197, 198, 199, 200, 201, 202, 203, 204, 205, 206, 207],
      "AcquisitionTime": ["135806.297500", "135807.787500", "135809.277500", "135810.767500", "135812.257500", "135813.747500", "135815.237500", "135816.727500", "135818.217500", "135819.707500", "135821.197500", "135822.687500", "135824.177500", "135825.667500", "135827.157500", "135828.647500", "135830.137500", "135831.627500", "135833.117500", "135834.607500", "135836.097500", "135837.587500", "135839.077500", "135840.567500", "135842.057500", "135843.547500", "135845.037500", "135846.527500", "135848.017500", "135849.507500", "135850.997500", "135852.487500", "135853.977500", "135855.467500", "135856.957500", "135858.447500", "135859.937500", "135901.427500", "135902.917500", "135904.407500", "135905.897500", "135907.387500", "135908.877500", "135910.367500", "135911.857500", "135913.347500", "135914.837500", "135916.327500", "135917.817500", "135919.307500", "135920.797500", "135922.287500", "135923.777500", "135925.267500", "135926.757500", "135928.247500", "135929.737500", "135931.227500", "135932.717500", "135934.207500", "135935.697500", "135937.187500", "135938.677500", "135940.167500", "135941.657500", "135943.147500", "135944.637500", "135946.127500", "135947.617500", "135949.107500", "135950.597500", "135952.087500", "135953.577500", "135955.067500", "135956.557500", "135958.047500", "135959.537500", "140001.027500", "140002.517500", "140004.007500", "140005.497500", "140006.987500", "140008.477500", "140009.967500", "140011.457500", "140012.947500", "140014.437500", "140015.927500", "140017.417500", "140018.907500", "140020.397500", "140021.887500", "140023.377500", "140024.867500", "140026.357500", "140027.847500", "140029.337500", "140030.827500", "140032.317500", "140033.807500", "140035.297500", "140036.787500", "140038.277500", "140039.767500", "140041.257500", "140042.747500", "140044.237500", "140045.727500", "140047.217500", "140048.707500", "140050.197500", "140051.687500", "140053.177500", "140054.667500", "140056.157500", "140057.647500", "140059.137500", "140100.627500", "140102.117500", "140103.607500", "140105.097500", "140106.587500", "140108.077500", "140109.567500", "140111.057500", "140112.547500", "140114.037500", "140115.527500", "140117.017500", "140118.507500", "140119.997500", "140121.487500", "140122.977500", "140124.467500", "140125.957500", "140127.447500", "140128.937500", "140130.427500", "140131.917500", "140133.407500", "140134.897500", "140136.387500", "140137.877500", "140139.367500", "140140.857500", "140142.347500", "140143.837500", "140145.327500", "140146.817500", "140148.307500", "140149.797500", "140151.287500", "140152.777500", "140154.267500", "140155.757500", "140157.247500", "140158.737500", "140200.227500", "140201.717500", "140203.207500", "140204.697500", "140206.187500", "140207.677500", "140209.167500", "140210.657500", "140212.147500", "140213.637500", "140215.127500", "140216.617500", "140218.107500", "140219.597500", "140221.087500", "140222.577500", "140224.067500", "140225.557500", "140227.047500", "140228.537500", "140230.027500", "140231.517500", "140233.007500", "140234.497500", "140235.987500", "140237.477500", "140238.967500", "140240.457500", "140241.947500", "140243.437500", "140244.927500", "140246.417500", "140247.907500", "140249.397500", "140250.887500", "140252.377500", "140253.867500", "140255.357500", "140256.847500", "140258.337500", "140259.827500", "140301.317500", "140302.807500", "140304.297500", "140305.787500", "140307.277500", "140308.767500", "140310.257500", "140311.747500", "140313.237500"],
      "ContentTime": ["135936.167000", "135936.170000", "135936.172000", "135936.175000", "135936.177000", "135936.180000", "135936.182000", "135936.185000", "135936.187000", "135936.190000", "135936.192000", "135936.195000", "135936.198000", "135936.200000", "135936.203000", "135936.205000", "135936.208000", "135936.211000", "135936.213000", "135936.216000", "135936.218000", "135936.221000", "135936.223000", "135936.226000", "135936.228000", "135936.231000", "135936.233000", "135936.236000", "135936.238000", "135936.241000", "135936.243000", "135936.246000", "135936.248000", "135936.251000", "135936.254000", "135936.256000", "135956.050000", "135956.052000", "135956.055000", "135956.057000", "135956.060000", "135956.069000", "135956.071000", "135956.074000", "135956.077000", "135956.079000", "135956.082000", "135956.085000", "135956.087000", "135956.090000", "135956.092000", "135956.110000", "135956.113000", "135956.116000", "135956.118000", "135956.121000", "140016.067000", "140016.070000", "140016.072000", "140016.075000", "140016.077000", "140016.080000", "140016.082000", "140016.085000", "140016.087000", "140016.090000", "140016.092000", "140016.095000", "140016.097000", "140016.100000", "140016.102000", "140016.105000", "140016.108000", "140016.110000", "140016.113000", "140016.115000", "140036.066000", "140036.069000", "140036.071000", "140036.074000", "140036.076000", "140036.079000", "140036.081000", "140036.084000", "140036.086000", "140036.089000", "140036.092000", "140036.094000", "140036.097000", "140036.099000", "140036.102000", "140036.104000", "140036.107000", "140036.109000", "140036.112000", "140036.115000", "140036.117000", "140116.091000", "140116.094000", "140116.096000", "140116.099000", "140116.102000", "140116.104000", "140116.107000", "140116.109000", "140116.117000", "140116.120000", "140116.122000", "140116.125000", "140116.127000", "140116.130000", "140116.132000", "140116.135000", "140116.137000", "140116.140000", "140116.142000", "140116.145000", "140116.148000", "140116.150000", "140116.153000", "140116.155000", "140116.158000", "140116.161000", "140116.164000", "140116.166000", "140116.178000", "140156.093000", "140156.096000", "140156.098000", "140156.101000", "140156.104000", "140156.106000", "140156.109000", "140156.111000", "140156.114000", "140156.116000", "140156.119000", "140156.121000", "140156.124000", "140156.126000", "140156.129000", "140156.131000", "140156.134000", "140156.137000", "140156.139000", "140156.142000", "140156.144000", "140156.147000", "140156.149000", "140156.152000", "140156.154000", "140156.157000", "140156.159000", "140216.549000", "140216.552000", "140216.554000", "140216.557000", "140216.559000", "140216.567000", "140216.577000", "140216.579000", "140216.582000", "140216.584000", "140216.587000", "140216.589000", "140216.592000", "140256.089000", "140256.092000", "140256.094000", "140256.097000", "140256.099000", "140256.102000", "140256.104000", "140256.107000", "140256.109000", "140256.112000", "140256.115000", "140256.117000", "140256.120000", "140256.122000", "140256.125000", "140256.127000", "140256.130000", "140256.132000", "140256.135000", "140256.137000", "140256.140000", "140256.142000", "140256.145000", "140256.151000", "140256.153000", "140256.156000", "140256.226000", "140315.922000", "140315.925000", "140315.927000", "140315.930000", "140315.932000", "140315.935000", "140315.945000", "140315.947000", "140315.950000", "140315.952000", "140315.955000", "140315.958000", "140315.972000", "140315.975000"],
      "InstanceCreationTime": ["135936.167000", "135936.170000", "135936.172000", "135936.175000", "135936.177000", "135936.180000", "135936.182000", "135936.185000", "135936.187000", "135936.190000", "135936.192000", "135936.195000", "135936.198000", "135936.200000", "135936.203000", "135936.205000", "135936.208000", "135936.211000", "135936.213000", "135936.216000", "135936.218000", "135936.221000", "135936.223000", "135936.226000", "135936.228000", "135936.231000", "135936.233000", "135936.236000", "135936.238000", "135936.241000", "135936.243000", "135936.246000", "135936.248000", "135936.251000", "135936.254000", "135936.256000", "135956.050000", "135956.052000", "135956.055000", "135956.057000", "135956.060000", "135956.069000", "135956.071000", "135956.074000", "135956.077000", "135956.079000", "135956.082000", "135956.085000", "135956.087000", "135956.090000", "135956.092000", "135956.110000", "135956.113000", "135956.116000", "135956.118000", "135956.121000", "140016.067000", "140016.070000", "140016.072000", "140016.075000", "140016.077000", "140016.080000", "140016.082000", "140016.085000", "140016.087000", "140016.090000", "140016.092000", "140016.095000", "140016.097000", "140016.100000", "140016.102000", "140016.105000", "140016.108000", "140016.110000", "140016.113000", "140016.115000", "140036.066000", "140036.069000", "140036.071000", "140036.074000", "140036.076000", "140036.079000", "140036.081000", "140036.084000", "140036.086000", "140036.089000", "140036.092000", "140036.094000", "140036.097000", "140036.099000", "140036.102000", "140036.104000", "140036.107000", "140036.109000", "140036.112000", "140036.115000", "140036.117000", "140116.091000", "140116.094000", "140116.096000", "140116.099000", "140116.102000", "140116.104000", "140116.107000", "140116.109000", "140116.117000", "140116.120000", "140116.122000", "140116.125000", "140116.127000", "140116.130000", "140116.132000", "140116.135000", "140116.137000", "140116.140000", "140116.142000", "140116.145000", "140116.148000", "140116.150000", "140116.153000", "140116.155000", "140116.158000", "140116.161000", "140116.164000", "140116.166000", "140116.178000", "140156.093000", "140156.096000", "140156.098000", "140156.101000", "140156.104000", "140156.106000", "140156.109000", "140156.111000", "140156.114000", "140156.116000", "140156.119000", "140156.121000", "140156.124000", "140156.126000", "140156.129000", "140156.131000", "140156.134000", "140156.137000", "140156.139000", "140156.142000", "140156.144000", "140156.147000", "140156.149000", "140156.152000", "140156.154000", "140156.157000", "140156.159000", "140216.549000", "140216.552000", "140216.554000", "140216.557000", "140216.559000", "140216.567000", "140216.577000", "140216.579000", "140216.582000", "140216.584000", "140216.587000", "140216.589000", "140216.592000", "140256.089000", "140256.092000", "140256.094000", "140256.097000", "140256.099000", "140256.102000", "140256.104000", "140256.107000", "140256.109000", "140256.112000", "140256.115000", "140256.117000", "140256.120000", "140256.122000", "140256.125000", "140256.127000", "140256.130000", "140256.132000", "140256.135000", "140256.137000", "140256.140000", "140256.142000", "140256.145000", "140256.151000", "140256.153000", "140256.156000", "140256.226000", "140315.922000", "140315.925000", "140315.927000", "140315.930000", "140315.932000", "140315.935000", "140315.945000", "140315.947000", "140315.950000", "140315.952000", "140315.955000", "140315.958000", "140315.972000", "140315.975000"],
      "InstanceNumber": [1, 2, 3, 4, 5, 6, 7, 8, 9, 10, 11, 12, 13, 14, 15, 16, 17, 18, 19, 20, 21, 22, 23, 24, 25, 26, 27, 28, 29, 30, 31, 32, 33, 34, 35, 36, 37, 38, 39, 40, 41, 42, 43, 44, 45, 46, 47, 48, 49, 50, 51, 52, 53, 54, 55, 56, 57, 58, 59, 60, 61, 62, 63, 64, 65, 66, 67, 68, 69, 70, 71, 72, 73, 74, 75, 76, 77, 78, 79, 80, 81, 82, 83, 84, 85, 86, 87, 88, 89, 90, 91, 92, 93, 94, 95, 96, 97, 98, 99, 100, 101, 102, 103, 104, 105, 106, 107, 108, 109, 110, 111, 112, 113, 114, 115, 116, 117, 118, 119, 120, 121, 122, 123, 124, 125, 126, 127, 128, 129, 130, 131, 132, 133, 134, 135, 136, 137, 138, 139, 140, 141, 142, 143, 144, 145, 146, 147, 148, 149, 150, 151, 152, 153, 154, 155, 156, 157, 158, 159, 160, 161, 162, 163, 164, 165, 166, 167, 168, 169, 170, 171, 172, 173, 174, 175, 176, 177, 178, 179, 180, 181, 182, 183, 184, 185, 186, 187, 188, 189, 190, 191, 192, 193, 194, 195, 196, 197, 198, 199, 200, 201, 202, 203, 204, 205, 206, 207],
      "WindowCenter": [4746.0, 4748.0, 4746.0, 4742.0, 4746.0, 4744.0, 4746.0, 4742.0, 4742.0, 4748.0, 4744.0, 4744.0, 4742.0, 4744.0, 4744.0, 4746.0, 4746.0, 4746.0, 4746.0, 4746.0, 4746.0, 4748.0, 4744.0, 4746.0, 4746.0, 4744.0, 4748.0, 4744.0, 4742.0, 4746.0, 4750.0, 4744.0, 4748.0, 4742.0, 4744.0, 4746.0, 4746.0, 4744.0, 4744.0, 4746.0, 4744.0, 4746.0, 4746.0, 4742.0, 4746.0, 4746.0, 4742.0, 4748.0, 4744.0, 4744.0, 4744.0, 4742.0, 4748.0, 4748.0, 4746.0, 4744.0, 4744.0, 4750.0, 4742.0, 4744.0, 4742.0, 4744.0, 4746.0, 4744.0, 4746.0, 4748.0, 4744.0, 4742.0, 4742.0, 4746.0, 4742.0, 4746.0, 4742.0, 4744.0, 4744.0, 4748.0, 4746.0, 4750.0, 4746.0, 4746.0, 4746.0, 4746.0, 4744.0, 4746.0, 4744.0, 4746.0, 4750.0, 4744.0, 4744.0, 4744.0, 4748.0, 4742.0, 4746.0, 4744.0, 4744.0, 4746.0, 4748.0, 4748.0, 4748.0, 4746.0, 4742.0, 4744.0, 4744.0, 4748.0, 4748.0, 4750.0, 4742.0, 4748.0, 4746.0, 4746.0, 4746.0, 4748.0, 4746.0, 4744.0, 4746.0, 4742.0, 4748.0, 4744.0, 4748.0, 4746.0, 4746.0, 4746.0, 4744.0, 4746.0, 4744.0, 4744.0, 4746.0, 4746.0, 4746.0, 4748.0, 4746.0, 4746.0, 4746.0, 4744.0, 4746.0, 4722.0, 4750.0, 4746.0, 4744.0, 4746.0, 4744.0, 4744.0, 4744.0, 4746.0, 4744.0, 4744.0, 4746.0, 4746.0, 4742.0, 4752.0, 4744.0, 4746.0, 4746.0, 4748.0, 4746.0, 4750.0, 4748.0, 4746.0, 4744.0, 4744.0, 4746.0, 4750.0, 4746.0, 4744.0, 4746.0, 4744.0, 4744.0, 4750.0, 4746.0, 4746.0, 4744.0, 4744.0, 4750.0, 4746.0, 4746.0, 4746.0, 4746.0, 4748.0, 4746.0, 4744.0, 4748.0, 4748.0, 4748.0, 4744.0, 4746.0, 4744.0, 4750.0, 4744.0, 4746.0, 4750.0, 4746.0, 4744.0, 4750.0, 4746.0, 4746.0, 4748.0, 4748.0, 4748.0, 4748.0, 4746.0, 4750.0, 4748.0, 4746.0, 4744.0, 4750.0, 4746.0, 4744.0],
      "WindowWidth": [18538.0, 18546.0, 18540.0, 18534.0, 18536.0, 18540.0, 18542.0, 18538.0, 18538.0, 18542.0, 18538.0, 18536.0, 18542.0, 18540.0, 18542.0, 18546.0, 18534.0, 18538.0, 18542.0, 18540.0, 18538.0, 18544.0, 18540.0, 18536.0, 18540.0, 18534.0, 18540.0, 18542.0, 18540.0, 18538.0, 18544.0, 18534.0, 18542.0, 18538.0, 18536.0, 18540.0, 18536.0, 18540.0, 18534.0, 18540.0, 18540.0, 18538.0, 18540.0, 18538.0, 18538.0, 18532.0, 18536.0, 18538.0, 18542.0, 18538.0, 18542.0, 18540.0, 18542.0, 18538.0, 18538.0, 18538.0, 18538.0, 18544.0, 18536.0, 18536.0, 18538.0, 18538.0, 18538.0, 18540.0, 18536.0, 18544.0, 18536.0, 18538.0, 18534.0, 18536.0, 18538.0, 18540.0, 18538.0, 18538.0, 18534.0, 18538.0, 18538.0, 18542.0, 18536.0, 18534.0, 18538.0, 18536.0, 18534.0, 18536.0, 18538.0, 18542.0, 18542.0, 18538.0, 18538.0, 18540.0, 18544.0, 18538.0, 18540.0, 18536.0, 18536.0, 18538.0, 18542.0, 18542.0, 18540.0, 18540.0, 18536.0, 18534.0, 18534.0, 18538.0, 18544.0, 18540.0, 18538.0, 18544.0, 18540.0, 18536.0, 18540.0, 18540.0, 18540.0, 18532.0, 18544.0, 18536.0, 18538.0, 18534.0, 18540.0, 18542.0, 18536.0, 18542.0, 18536.0, 18546.0, 18538.0, 18540.0, 18542.0, 18540.0, 18538.0, 18538.0, 18538.0, 18532.0, 18538.0, 18536.0, 18538.0, 18504.0, 18540.0, 18536.0, 18534.0, 18538.0, 18534.0, 18536.0, 18538.0, 18542.0, 18534.0, 18536.0, 18540.0, 18536.0, 18536.0, 18542.0, 18534.0, 18540.0, 18540.0, 18546.0, 18540.0, 18540.0, 18540.0, 18540.0, 18536.0, 18538.0, 18542.0, 18544.0, 18538.0, 18532.0, 18540.0, 18538.0, 18540.0, 18540.0, 18540.0, 18542.0, 18540.0, 18540.0, 18546.0, 18540.0, 18540.0, 18538.0, 18538.0, 18536.0, 18540.0, 18536.0, 18536.0, 18538.0, 18542.0, 18532.0, 18536.0, 18536.0, 18542.0, 18534.0, 18540.0, 18542.0, 18534.0, 18536.0, 18546.0, 18538.0, 18540.0, 18540.0, 18544.0, 18544.0, 18546.0, 18536.0, 18542.0, 18538.0, 18538.0, 18540.0, 18540.0, 18542.0, 18542.0]
    },
    "slices": {}
  }
}