{
  "AcquisitionMatrixPE": 104,
  "AcquisitionNumber": 1,
  "AcquisitionTime": "14:04:32.835000",
  "BandwidthPerPixelPhaseEncode": 17.17,
  "BaseResolution": 104,
  "BodyPartExamined": "BRAIN",
  "CoilCombinationMethod": "Sum of Squares",
  "ConsistencyInfo": "N4_VE11C_LATEST_20160120",
  "ConversionSoftware": "dcm2niix",
  "ConversionSoftwareVersion": "v1.0.20211006",
  "DerivedVendorReportedEchoSpacing": 0.000560011,
  "DeviceSerialNumber": "167006",
  "DwellTime": 2.1e-06,
  "EchoTime": 0.037,
  "EchoTime1": 0.037,
  "EchoTime2": 0.001,
  "EchoTrainLength": 104,
  "EffectiveEchoSpacing": 0.000560011,
  "FlipAngle": 52,
  "HeudiconvVersion": "0.10.0",
  "ImageComments": "Unaliased MB4/PE3/LB",
  "ImageOrientationPatientDICOM": [0.998778, 0.0118291, 0.047987, -0.00104591, 0.975777, -0.218766],
  "ImageOrientationText": "Tra>Cor(-12.6)>Sag(2.8)",
  "ImageType": [
    "ORIGINAL",
    "PRIMARY",
    "P",
    "MB",
    "ND",
    "MOSAIC",
    "PHASE"
],
  "ImagingFrequency": 123.259,
  "InPlanePhaseEncodingDirectionDICOM": "COL",
  "InstitutionAddress": "Chemin Queen-Mary 4565,Montreal,District,CA,H3W 1W5",
  "InstitutionName": "IUGM",
  "InstitutionalDepartmentName": "Department",
  "MRAcquisitionType": "2D",
  "MagneticFieldStrength": 3,
  "Manufacturer": "Siemens",
  "ManufacturersModelName": "Prisma_fit",
  "MatrixCoilMode": "SENSE",
  "Modality": "MR",
  "MultibandAccelerationFactor": 4,
  "PartialFourier": 1,
  "PatientPosition": "HFS",
  "PercentPhaseFOV": 100,
  "PercentSampling": 100,
  "PhaseEncodingDirection": "j",
  "PhaseEncodingSteps": 104,
  "PhaseResolution": 1,
  "PixelBandwidth": 2290,
  "ProcedureStepDescription": "games^gamepad",
  "ProtocolName": "func_task-gamepad_run-2",
  "PulseSequenceDetails": "%CustomerSeq%\\cmrr_mbep2d_bold",
  "ReceiveCoilActiveElements": "HC1-7;NC1,2",
  "ReceiveCoilName": "HeadNeck_64",
  "ReconMatrixPE": 104,
  "RepetitionTime": 1.49,
  "SAR": 0.0545016,
  "ScanOptions": "FS",
  "ScanningSequence": "EP",
  "SequenceName": "epfid2d1_104",
  "SequenceVariant": "SK\\SS",
  "SeriesDescription": "func_task-gamepad_run-2",
  "SeriesNumber": 14,
  "ShimSetting": [641, -7236, -8777, 717, 45, -29, 96, -23],
  "SliceThickness": 2,
  "SliceTiming": [0, 0.7825, 0.0975, 0.88, 0.195, 0.98, 0.2925, 1.0775, 0.3925, 1.175, 0.49, 1.2725, 0.5875, 1.37, 0.685, 0, 0.7825, 0.0975, 0.88, 0.195, 0.98, 0.2925, 1.0775, 0.3925, 1.175, 0.49, 1.2725, 0.5875, 1.37, 0.685, 0, 0.7825, 0.0975, 0.88, 0.195, 0.98, 0.2925, 1.0775, 0.3925, 1.175, 0.49, 1.2725, 0.5875, 1.37, 0.685, 0, 0.7825, 0.0975, 0.88, 0.195, 0.98, 0.2925, 1.0775, 0.3925, 1.175, 0.49, 1.2725, 0.5875, 1.37, 0.685],
  "SoftwareVersions": "syngo MR E11",
  "SpacingBetweenSlices": 2,
  "StationName": "MRC35049",
  "TaskName": "gamepad",
  "TotalReadoutTime": 0.0576811,
  "TxRefAmp": 244.02,
  "WipMemBlock": "4cff0a65-f097-40c5-a2fa-eb4bf75365e8||Sequence: R016 ve11c/master r/e634e98; Dec 19 2017 11:00:25 by eja",
  "dcmmeta_affine": [
    [-1.9975558519363403, -0.0020918287336826324, 0.09882485121488571, 106.47161102294922],
    [-0.023658180609345436, 1.9515537023544312, -0.4368963837623596, -75.93792724609375],
    [0.09597404301166534, 0.4375314712524414, 1.9491934776306152, -58.396724700927734],
    [0.0, 0.0, 0.0, 1.0]
],
  "dcmmeta_reorient_transform": [
    [0.0, -1.0, 0.0, 103.0],
    [1.0, 0.0, 0.0, 0.0],
    [0.0, 0.0, 1.0, 0.0],
    [0.0, 0.0, 0.0, 1.0]
],
  "dcmmeta_shape": [104, 104, 60, 207],
  "dcmmeta_slice_dim": 2,
  "dcmmeta_version": 0.6,
  "global": {
    "const": {
      "AcquisitionMatrix": [104, 0, 0, 104],
      "AngioFlag": "N",
      "BitsAllocated": 16,
      "BitsStored": 16,
      "BodyPartExamined": "BRAIN",
      "Columns": 832,
      "EchoNumbers": 1,
      "EchoTime": 37.0,
      "EchoTrainLength": 104,
      "FlipAngle": 52.0,
      "HighBit": 15,
      "ImageOrientationPatient": [0.99877791242707, 0.01182909006643, 0.04798702195415, -0.001045914418, 0.97577684961343, -0.2187657327406],
      "ImagePositionPatient": [-832.60505057994, -844.04922961272, 110.99591883794],
      "ImageType": [
        "ORIGINAL",
        "PRIMARY",
        "P",
        "MB",
        "ND",
        "MOSAIC"
],
      "ImagedNucleus": "1H",
      "ImagingFrequency": 123.258929,
      "InPlanePhaseEncodingDirection": "COL",
      "LargestImagePixelValue": 4095,
      "MRAcquisitionType": "2D",
      "MagneticFieldStrength": 3.0,
      "Manufacturer": "SIEMENS",
      "ManufacturerModelName": "Prisma_fit",
      "Modality": "MR",
      "NumberOfAverages": 1.0,
      "NumberOfPhaseEncodingSteps": 104,
      "PercentPhaseFieldOfView": 100.0,
      "PercentSampling": 100.0,
      "PerformedProcedureStepStartTime": "135314.046000",
      "PhotometricInterpretation": "MONOCHROME2",
      "PixelBandwidth": 2290.0,
      "PixelRepresentation": 0,
      "PixelSpacing": [2.0, 2.0],
      "ProtocolName": "func_task-gamepad_run-2",
      "RepetitionTime": 1490.0,
      "RescaleIntercept": -4096.0,
      "RescaleSlope": 2.0,
      "RescaleType": "US",
      "Rows": 832,
      "SAR": 0.05450160683763,
      "SamplesPerPixel": 1,
      "ScanOptions": "FS",
      "ScanningSequence": "EP",
      "SequenceName": "epfid2d1_104",
      "SequenceVariant": [
        "SK",
        "SS"
],
      "SeriesDescription": "func_task-gamepad_run-2",
      "SeriesNumber": 14,
      "SeriesTime": "140602.319000",
      "SliceLocation": -35.063733117626,
      "SliceThickness": 2.0,
      "SmallestImagePixelValue": 0,
      "SoftwareVersions": "syngo MR E11",
      "SpacingBetweenSlices": 1.9999999910499,
      "SpecificCharacterSet": "ISO_IR 100",
      "StudyID": "1",
      "StudyTime": "135313.956000",
      "TransmitCoilName": "Body",
      "VariableFlipAngleFlag": "N",
      "WindowCenterWidthExplanation": "Algo1",
      "dBdt": 0.0},
    "slices": {}
  },
  "time": {
    "samples": {
      "AcquisitionNumber": [1, 2, 3, 4, 5, 6, 7, 8, 9, 10, 11, 12, 13, 14, 15, 16, 17, 18, 19, 20, 21, 22, 23, 24, 25, 26, 27, 28, 29, 30, 31, 32, 33, 34, 35, 36, 37, 38, 39, 40, 41, 42, 43, 44, 45, 46, 47, 48, 49, 50, 51, 52, 53, 54, 55, 56, 57, 58, 59, 60, 61, 62, 63, 64, 65, 66, 67, 68, 69, 70, 71, 72, 73, 74, 75, 76, 77, 78, 79, 80, 81, 82, 83, 84, 85, 86, 87, 88, 89, 90, 91, 92, 93, 94, 95, 96, 97, 98, 99, 100, 101, 102, 103, 104, 105, 106, 107, 108, 109, 110, 111, 112, 113, 114, 115, 116, 117, 118, 119, 120, 121, 122, 123, 124, 125, 126, 127, 128, 129, 130, 131, 132, 133, 134, 135, 136, 137, 138, 139, 140, 141, 142, 143, 144, 145, 146, 147, 148, 149, 150, 151, 152, 153, 154, 155, 156, 157, 158, 159, 160, 161, 162, 163, 164, 165, 166, 167, 168, 169, 170, 171, 172, 173, 174, 175, 176, 177, 178, 179, 180, 181, 182, 183, 184, 185, 186, 187, 188, 189, 190, 191, 192, 193, 194, 195, 196, 197, 198, 199, 200, 201, 202, 203, 204, 205, 206, 207],
      "AcquisitionTime": ["140432.835000", "140434.325000", "140435.815000", "140437.305000", "140438.795000", "140440.285000", "140441.775000", "140443.265000", "140444.755000", "140446.245000", "140447.735000", "140449.225000", "140450.715000", "140452.205000", "140453.695000", "140455.185000", "140456.675000", "140458.165000", "140459.655000", "140501.145000", "140502.635000", "140504.125000", "140505.615000", "140507.105000", "140508.595000", "140510.085000", "140511.575000", "140513.065000", "140514.555000", "140516.045000", "140517.535000", "140519.025000", "140520.515000", "140522.005000", "140523.495000", "140524.985000", "140526.475000", "140527.965000", "140529.455000", "140530.945000", "140532.435000", "140533.925000", "140535.415000", "140536.905000", "140538.395000", "140539.885000", "140541.375000", "140542.865000", "140544.355000", "140545.845000", "140547.335000", "140548.825000", "140550.315000", "140551.805000", "140553.295000", "140554.785000", "140556.275000", "140557.765000", "140559.255000", "140600.745000", "140602.235000", "140603.725000", "140605.215000", "140606.705000", "140608.195000", "140609.685000", "140611.175000", "140612.665000", "140614.155000", "140615.645000", "140617.135000", "140618.625000", "140620.115000", "140621.605000", "140623.095000", "140624.585000", "140626.075000", "140627.565000", "140629.055000", "140630.545000", "140632.035000", "140633.525000", "140635.015000", "140636.505000", "140637.995000", "140639.485000", "140640.975000", "140642.465000", "140643.955000", "140645.445000", "140646.935000", "140648.425000", "140649.915000", "140651.405000", "140652.895000", "140654.385000", "140655.875000", "140657.365000", "140658.855000", "140700.345000", "140701.835000", "140703.325000", "140704.815000", "140706.305000", "140707.795000", "140709.285000", "140710.775000", "140712.265000", "140713.755000", "140715.245000", "140716.735000", "140718.225000", "140719.715000", "140721.205000", "140722.695000", "140724.185000", "140725.675000", "140727.165000", "140728.655000", "140730.145000", "140731.635000", "140733.125000", "140734.615000", "140736.105000", "140737.595000", "140739.085000", "140740.575000", "140742.065000", "140743.555000", "140745.045000", "140746.535000", "140748.025000", "140749.515000", "140751.005000", "140752.495000", "140753.985000", "140755.475000", "140756.965000", "140758.455000", "140759.945000", "140801.435000", "140802.925000", "140804.415000", "140805.905000", "140807.395000", "140808.885000", "140810.375000", "140811.865000", "140813.355000", "140814.845000", "140816.335000", "140817.825000", "140819.315000", "140820.805000", "140822.295000", "140823.785000", "140825.275000", "140826.765000", "140828.255000", "140829.745000", "140831.235000", "140832.725000", "140834.215000", "140835.705000", "140837.195000", "140838.685000", "140840.175000", "140841.665000", "140843.155000", "140844.645000", "140846.135000", "140847.625000", "140849.115000", "140850.605000", "140852.095000", "140853.585000", "140855.075000", "140856.565000", "140858.055000", "140859.545000", "140901.035000", "140902.525000", "140904.015000", "140905.505000", "140906.995000", "140908.485000", "140909.975000", "140911.465000", "140912.955000", "140914.445000", "140915.935000", "140917.425000", "140918.915000", "140920.405000", "140921.895000", "140923.385000", "140924.875000", "140926.365000", "140927.855000", "140929.345000", "140930.835000", "140932.325000", "140933.815000", "140935.305000", "140936.795000", "140938.285000", "140939.775000"],
      "ContentTime": ["140602.321000", "140602.324000", "140602.326000", "140602.329000", "140602.331000", "140602.334000", "140602.336000", "140602.339000", "140602.341000", "140602.344000", "140602.346000", "140602.349000", "140602.351000", "140602.354000", "140602.356000", "140602.359000", "140602.361000", "140602.364000", "140602.366000", "140602.369000", "140602.371000", "140602.374000", "140602.377000", "140602.380000", "140602.382000", "140602.385000", "140602.387000", "140602.390000", "140602.392000", "140602.395000", "140602.397000", "140602.400000", "140602.407000", "140602.410000", "140602.412000", "140622.250000", "140622.252000", "140622.255000", "140622.258000", "140622.260000", "140622.263000", "140622.265000", "140622.267000", "140622.270000", "140622.272000", "140622.275000", "140622.277000", "140622.280000", "140622.282000", "140622.285000", "140622.287000", "140622.290000", "140622.292000", "140622.295000", "140622.297000", "140642.232000", "140642.235000", "140642.237000", "140642.240000", "140642.242000", "140642.245000", "140642.247000", "140642.250000", "140642.252000", "140642.255000", "140642.257000", "140642.260000", "140642.262000", "140642.265000", "140642.267000", "140642.270000", "140642.278000", "140642.281000", "140642.283000", "140642.286000", "140702.255000", "140702.259000", "140702.262000", "140702.265000", "140702.268000", "140702.270000", "140702.273000", "140702.275000", "140702.278000", "140702.281000", "140702.283000", "140702.286000", "140702.288000", "140702.291000", "140702.293000", "140702.296000", "140702.298000", "140702.301000", "140702.303000", "140702.306000", "140742.472000", "140742.475000", "140742.478000", "140742.480000", "140742.483000", "140742.485000", "140742.488000", "140742.490000", "140742.510000", "140742.512000", "140742.515000", "140742.517000", "140742.520000", "140742.523000", "140742.525000", "140742.528000", "140742.530000", "140742.533000", "140742.535000", "140742.538000", "140742.540000", "140742.543000", "140742.546000", "140742.548000", "140742.551000", "140742.554000", "140742.556000", "140742.559000", "140742.561000", "140742.564000", "140742.573000", "140822.265000", "140822.268000", "140822.271000", "140822.273000", "140822.276000", "140822.278000", "140822.281000", "140822.284000", "140822.286000", "140822.289000", "140822.291000", "140822.294000", "140822.296000", "140822.299000", "140822.301000", "140822.304000", "140822.306000", "140822.309000", "140822.311000", "140822.314000", "140822.316000", "140822.319000", "140822.322000", "140822.324000", "140822.327000", "140822.329000", "140822.332000", "140902.251000", "140902.254000", "140902.257000", "140902.259000", "140902.262000", "140902.264000", "140902.267000", "140902.269000", "140902.272000", "140902.274000", "140902.277000", "140902.279000", "140902.281000", "140902.284000", "140902.286000", "140902.289000", "140902.291000", "140902.294000", "140902.296000", "140902.299000", "140902.302000", "140902.304000", "140902.306000", "140902.309000", "140902.312000", "140902.314000", "140902.324000", "140942.230000", "140942.233000", "140942.236000", "140942.238000", "140942.240000", "140942.243000", "140942.245000", "140942.248000", "140942.250000", "140942.253000", "140942.255000", "140942.258000", "140942.260000", "140942.263000", "140942.265000", "140942.268000", "140942.270000", "140942.273000", "140942.275000", "140942.278000", "140942.280000", "140942.290000", "140942.293000", "140942.296000", "140942.298000", "140942.300000", "140942.303000"],
      "InstanceCreationTime": ["140602.321000", "140602.324000", "140602.326000", "140602.329000", "140602.331000", "140602.334000", "140602.336000", "140602.339000", "140602.341000", "140602.344000", "140602.346000", "140602.349000", "140602.351000", "140602.354000", "140602.356000", "140602.359000", "140602.361000", "140602.364000", "140602.366000", "140602.369000", "140602.371000", "140602.374000", "140602.377000", "140602.380000", "140602.382000", "140602.385000", "140602.387000", "140602.390000", "140602.392000", "140602.395000", "140602.397000", "140602.400000", "140602.407000", "140602.410000", "140602.412000", "140622.250000", "140622.252000", "140622.255000", "140622.258000", "140622.260000", "140622.263000", "140622.265000", "140622.267000", "140622.270000", "140622.272000", "140622.275000", "140622.277000", "140622.280000", "140622.282000", "140622.285000", "140622.287000", "140622.290000", "140622.292000", "140622.295000", "140622.297000", "140642.232000", "140642.235000", "140642.237000", "140642.240000", "140642.242000", "140642.245000", "140642.247000", "140642.250000", "140642.252000", "140642.255000", "140642.257000", "140642.260000", "140642.262000", "140642.265000", "140642.267000", "140642.270000", "140642.278000", "140642.281000", "140642.283000", "140642.286000", "140702.255000", "140702.259000", "140702.262000", "140702.265000", "140702.268000", "140702.270000", "140702.273000", "140702.275000", "140702.278000", "140702.281000", "140702.283000", "140702.286000", "140702.288000", "140702.291000", "140702.293000", "140702.296000", "140702.298000", "140702.301000", "140702.303000", "140702.306000", "140742.472000", "140742.475000", "140742.478000", "140742.480000", "140742.483000", "140742.485000", "140742.488000", "140742.490000", "140742.510000", "140742.512000", "140742.515000", "140742.517000", "140742.520000", "140742.523000", "140742.525000", "140742.528000", "140742.530000", "140742.533000", "140742.535000", "140742.538000", "140742.540000", "140742.543000", "140742.546000", "140742.548000", "140742.551000", "140742.554000", "140742.556000", "140742.559000", "140742.561000", "140742.564000", "140742.573000", "140822.265000", "140822.268000", "140822.271000", "140822.273000", "140822.276000", "140822.278000", "140822.281000", "140822.284000", "140822.286000", "140822.289000", "140822.291000", "140822.294000", "140822.296000", "140822.299000", "140822.301000", "140822.304000", "140822.306000", "140822.309000", "140822.311000", "140822.314000", "140822.316000", "140822.319000", "140822.322000", "140822.324000", "140822.327000", "140822.329000", "140822.332000", "140902.251000", "140902.254000", "140902.257000", "140902.259000", "140902.262000", "140902.264000", "140902.267000", "140902.269000", "140902.272000", "140902.274000", "140902.277000", "140902.279000", "140902.281000", "140902.284000", "140902.286000", "140902.289000", "140902.291000", "140902.294000", "140902.296000", "140902.299000", "140902.302000", "140902.304000", "140902.306000", "140902.309000", "140902.312000", "140902.314000", "140902.324000", "140942.230000", "140942.233000", "140942.236000", "140942.238000", "140942.240000", "140942.243000", "140942.245000", "140942.248000", "140942.250000", "140942.253000", "140942.255000", "140942.258000", "140942.260000", "140942.263000", "140942.265000", "140942.268000", "140942.270000", "140942.273000", "140942.275000", "140942.278000", "140942.280000", "140942.290000", "140942.293000", "140942.296000", "140942.298000", "140942.300000", "140942.303000"],
      "InstanceNumber": [1, 2, 3, 4, 5, 6, 7, 8, 9, 10, 11, 12, 13, 14, 15, 16, 17, 18, 19, 20, 21, 22, 23, 24, 25, 26, 27, 28, 29, 30, 31, 32, 33, 34, 35, 36, 37, 38, 39, 40, 41, 42, 43, 44, 45, 46, 47, 48, 49, 50, 51, 52, 53, 54, 55, 56, 57, 58, 59, 60, 61, 62, 63, 64, 65, 66, 67, 68, 69, 70, 71, 72, 73, 74, 75, 76, 77, 78, 79, 80, 81, 82, 83, 84, 85, 86, 87, 88, 89, 90, 91, 92, 93, 94, 95, 96, 97, 98, 99, 100, 101, 102, 103, 104, 105, 106, 107, 108, 109, 110, 111, 112, 113, 114, 115, 116, 117, 118, 119, 120, 121, 122, 123, 124, 125, 126, 127, 128, 129, 130, 131, 132, 133, 134, 135, 136, 137, 138, 139, 140, 141, 142, 143, 144, 145, 146, 147, 148, 149, 150, 151, 152, 153, 154, 155, 156, 157, 158, 159, 160, 161, 162, 163, 164, 165, 166, 167, 168, 169, 170, 171, 172, 173, 174, 175, 176, 177, 178, 179, 180, 181, 182, 183, 184, 185, 186, 187, 188, 189, 190, 191, 192, 193, 194, 195, 196, 197, 198, 199, 200, 201, 202, 203, 204, 205, 206, 207],
      "WindowCenter": [4740.0, 4744.0, 4744.0, 4744.0, 4744.0, 4740.0, 4746.0, 4744.0, 4744.0, 4742.0, 4742.0, 4742.0, 4744.0, 4744.0, 4742.0, 4748.0, 4746.0, 4744.0, 4744.0, 4744.0, 4744.0, 4744.0, 4746.0, 4746.0, 4744.0, 4744.0, 4746.0, 4746.0, 4748.0, 4742.0, 4748.0, 4748.0, 4742.0, 4744.0, 4744.0, 4744.0, 4744.0, 4746.0, 4742.0, 4746.0, 4746.0, 4748.0, 4744.0, 4744.0, 4748.0, 4744.0, 4744.0, 4748.0, 4742.0, 4744.0, 4744.0, 4744.0, 4742.0, 4744.0, 4748.0, 4746.0, 4744.0, 4746.0, 4748.0, 4746.0, 4746.0, 4742.0, 4742.0, 4748.0, 4744.0, 4746.0, 4748.0, 4748.0, 4748.0, 4748.0, 4746.0, 4748.0, 4744.0, 4746.0, 4748.0, 4746.0, 4770.0, 4744.0, 4750.0, 4744.0, 4746.0, 4746.0, 4744.0, 4748.0, 4748.0, 4748.0, 4744.0, 4748.0, 4746.0, 4744.0, 4742.0, 4770.0, 4746.0, 4748.0, 4748.0, 4746.0, 4746.0, 4742.0, 4744.0, 4746.0, 4744.0, 4746.0, 4746.0, 4746.0, 4748.0, 4744.0, 4744.0, 4772.0, 4748.0, 4748.0, 4748.0, 4746.0, 4746.0, 4744.0, 4744.0, 4744.0, 4744.0, 4768.0, 4744.0, 4744.0, 4746.0, 4744.0, 4744.0, 4746.0, 4742.0, 4744.0, 4744.0, 4768.0, 4744.0, 4744.0, 4744.0, 4766.0, 4744.0, 4740.0, 4744.0, 4748.0, 4744.0, 4770.0, 4746.0, 4746.0, 4746.0, 4744.0, 4744.0, 4746.0, 4750.0, 4774.0, 4748.0, 4746.0, 4746.0, 4746.0, 4746.0, 4742.0, 4744.0, 4744.0, 4746.0, 4746.0, 4744.0, 4748.0, 4746.0, 4742.0, 4748.0, 4746.0, 4744.0, 4748.0, 4746.0, 4746.0, 4746.0, 4746.0, 4744.0, 4748.0, 4746.0, 4748.0, 4748.0, 4748.0, 4748.0, 4744.0, 4742.0, 4746.0, 4748.0, 4744.0, 4748.0, 4744.0, 4746.0, 4746.0, 4746.0, 4744.0, 4746.0, 4748.0, 4744.0, 4746.0, 4742.0, 4746.0, 4748.0, 4748.0, 4748.0, 4742.0, 4744.0, 4748.0, 4748.0, 4744.0, 4770.0, 4742.0, 4744.0, 4748.0, 4742.0, 4748.0, 4746.0],
      "WindowWidth": [18542.0, 18546.0, 18540.0, 18544.0, 18546.0, 18536.0, 18542.0, 18542.0, 18544.0, 18542.0, 18540.0, 18540.0, 18542.0, 18542.0, 18538.0, 18548.0, 18542.0, 18542.0, 18542.0, 18538.0, 18546.0, 18544.0, 18546.0, 18546.0, 18542.0, 18544.0, 18548.0, 18544.0, 18550.0, 18540.0, 18544.0, 18540.0, 18542.0, 18550.0, 18546.0, 18544.0, 18546.0, 18544.0, 18540.0, 18544.0, 18544.0, 18546.0, 18544.0, 18542.0, 18550.0, 18546.0, 18544.0, 18544.0, 18542.0, 18544.0, 18544.0, 18542.0, 18538.0, 18544.0, 18546.0, 18540.0, 18540.0, 18546.0, 18548.0, 18544.0, 18544.0, 18544.0, 18542.0, 18550.0, 18542.0, 18550.0, 18546.0, 18542.0, 18546.0, 18546.0, 18546.0, 18548.0, 18544.0, 18546.0, 18544.0, 18544.0, 18576.0, 18546.0, 18546.0, 18544.0, 18540.0, 18540.0, 18546.0, 18544.0, 18542.0, 18544.0, 18546.0, 18546.0, 18546.0, 18542.0, 18542.0, 18576.0, 18542.0, 18548.0, 18546.0, 18548.0, 18542.0, 18542.0, 18546.0, 18546.0, 18544.0, 18546.0, 18544.0, 18546.0, 18544.0, 18544.0, 18538.0, 18576.0, 18546.0, 18542.0, 18548.0, 18544.0, 18544.0, 18540.0, 18544.0, 18544.0, 18540.0, 18574.0, 18540.0, 18542.0, 18540.0, 18544.0, 18540.0, 18546.0, 18540.0, 18546.0, 18542.0, 18572.0, 18546.0, 18538.0, 18544.0, 18578.0, 18544.0, 18538.0, 18540.0, 18544.0, 18546.0, 18578.0, 18544.0, 18542.0, 18546.0, 18538.0, 18542.0, 18544.0, 18550.0, 18578.0, 18544.0, 18538.0, 18542.0, 18544.0, 18544.0, 18542.0, 18544.0, 18544.0, 18542.0, 18540.0, 18540.0, 18546.0, 18546.0, 18540.0, 18550.0, 18546.0, 18542.0, 18542.0, 18544.0, 18540.0, 18544.0, 18542.0, 18544.0, 18548.0, 18540.0, 18544.0, 18546.0, 18544.0, 18548.0, 18540.0, 18538.0, 18542.0, 18546.0, 18544.0, 18548.0, 18542.0, 18546.0, 18546.0, 18542.0, 18542.0, 18542.0, 18548.0, 18538.0, 18542.0, 18540.0, 18548.0, 18550.0, 18548.0, 18548.0, 18544.0, 18544.0, 18542.0, 18548.0, 18542.0, 18576.0, 18546.0, 18542.0, 18546.0, 18542.0, 18544.0, 18544.0]
    },
    "slices": {}
  }
}