{
  "AcquisitionMatrixPE": 104,
  "AcquisitionNumber": 1,
  "AcquisitionTime": "13:58:6.297500",
  "B0FieldSource": "sub-03_ses-003_task-gamepad_run-01_part-mag_bold.nii.gz",
  "BandwidthPerPixelPhaseEncode": 17.17,
  "BaseResolution": 104,
  "BodyPartExamined": "BRAIN",
  "CoilCombinationMethod": "Sum of Squares",
  "ConsistencyInfo": "N4_VE11C_LATEST_20160120",
  "ConversionSoftware": "dcm2niix",
  "ConversionSoftwareVersion": "v1.0.20211006",
  "DerivedVendorReportedEchoSpacing": 0.000560011,
  "DeviceSerialNumber": "167006",
  "DwellTime": 2.1e-06,
  "EchoTime": 0.037,
  "EchoTrainLength": 104,
  "EffectiveEchoSpacing": 0.000560011,
  "FlipAngle": 52,
  "HeudiconvVersion": "0.10.0",
  "ImageComments": "Unaliased MB4/PE3/LB",
  "ImageOrientationPatientDICOM": [0.998778, 0.0118291, 0.047987, -0.00104591, 0.975777, -0.218766],
  "ImageOrientationText": "Tra>Cor(-12.6)>Sag(2.8)",
  "ImageType": [
    "ORIGINAL",
    "PRIMARY",
    "M",
    "MB",
    "ND",
    "MOSAIC"
],
  "ImagingFrequency": 123.259,
  "InPlanePhaseEncodingDirectionDICOM": "COL",
  "InstitutionAddress": "Chemin Queen-Mary 4565,Montreal,District,CA,H3W 1W5",
  "InstitutionName": "IUGM",
  "InstitutionalDepartmentName": "Department",
  "MRAcquisitionType": "2D",
  "MagneticFieldStrength": 3,
  "Manufacturer": "Siemens",
  "ManufacturersModelName": "Prisma_fit",
  "MatrixCoilMode": "SENSE",
  "Modality": "MR",
  "MultibandAccelerationFactor": 4,
  "PartialFourier": 1,
  "PatientPosition": "HFS",
  "PercentPhaseFOV": 100,
  "PercentSampling": 100,
  "PhaseEncodingDirection": "j",
  "PhaseEncodingSteps": 104,
  "PhaseResolution": 1,
  "PixelBandwidth": 2290,
  "ProcedureStepDescription": "games^gamepad",
  "ProtocolName": "func_task-gamepad_run-1",
  "PulseSequenceDetails": "%CustomerSeq%\\cmrr_mbep2d_bold",
  "ReceiveCoilActiveElements": "HC1-7;NC1,2",
  "ReceiveCoilName": "HeadNeck_64",
  "ReconMatrixPE": 104,
  "RepetitionTime": 1.49,
  "SAR": 0.0545016,
  "ScanOptions": "FS",
  "ScanningSequence": "EP",
  "SequenceName": "epfid2d1_104",
  "SequenceVariant": "SK\\SS",
  "SeriesDescription": "func_task-gamepad_run-1",
  "SeriesNumber": 10,
  "ShimSetting": [641, -7236, -8777, 717, 45, -29, 96, -23],
  "SliceThickness": 2,
  "SliceTiming": [0, 0.7825, 0.0975, 0.8825, 0.195, 0.98, 0.2925, 1.0775, 0.3925, 1.175, 0.49, 1.2725, 0.5875, 1.3725, 0.685, 0, 0.7825, 0.0975, 0.8825, 0.195, 0.98, 0.2925, 1.0775, 0.3925, 1.175, 0.49, 1.2725, 0.5875, 1.3725, 0.685, 0, 0.7825, 0.0975, 0.8825, 0.195, 0.98, 0.2925, 1.0775, 0.3925, 1.175, 0.49, 1.2725, 0.5875, 1.3725, 0.685, 0, 0.7825, 0.0975, 0.8825, 0.195, 0.98, 0.2925, 1.0775, 0.3925, 1.175, 0.49, 1.2725, 0.5875, 1.3725, 0.685],
  "SoftwareVersions": "syngo MR E11",
  "SpacingBetweenSlices": 2,
  "StationName": "MRC35049",
  "TaskName": "gamepad",
  "TotalReadoutTime": 0.0576811,
  "TxRefAmp": 244.02,
  "WipMemBlock": "02eb6708-f305-4fdb-9ac2-1e94fbce1d75||Sequence: R016 ve11c/master r/e634e98; Dec 19 2017 11:00:25 by eja",
  "dcmmeta_affine": [
    [-1.9975558519363403, -0.0020918287336826324, 0.09882485121488571, 106.47161102294922],
    [-0.023658180609345436, 1.9515537023544312, -0.4368963837623596, -75.93792724609375],
    [0.09597404301166534, 0.4375314712524414, 1.9491934776306152, -58.396724700927734],
    [0.0, 0.0, 0.0, 1.0]
],
  "dcmmeta_reorient_transform": [
    [0.0, -1.0, 0.0, 103.0],
    [1.0, 0.0, 0.0, 0.0],
    [0.0, 0.0, 1.0, 0.0],
    [0.0, 0.0, 0.0, 1.0]
],
  "dcmmeta_shape": [104, 104, 60, 207],
  "dcmmeta_slice_dim": 2,
  "dcmmeta_version": 0.6,
  "global": {
    "const": {
      "AcquisitionMatrix": [104, 0, 0, 104],
      "AngioFlag": "N",
      "BitsAllocated": 16,
      "BitsStored": 16,
      "BodyPartExamined": "BRAIN",
      "Columns": 832,
      "EchoNumbers": 1,
      "EchoTime": 37.0,
      "EchoTrainLength": 104,
      "FlipAngle": 52.0,
      "HighBit": 15,
      "ImageOrientationPatient": [0.99877791242707, 0.01182909006643, 0.04798702195415, -0.001045914418, 0.97577684961343, -0.2187657327406],
      "ImagePositionPatient": [-832.60505057994, -844.04922961272, 110.99591883794],
      "ImageType": [
        "ORIGINAL",
        "PRIMARY",
        "M",
        "MB",
        "ND",
        "MOSAIC"
],
      "ImagedNucleus": "1H",
      "ImagingFrequency": 123.258926,
      "InPlanePhaseEncodingDirection": "COL",
      "MRAcquisitionType": "2D",
      "MagneticFieldStrength": 3.0,
      "Manufacturer": "SIEMENS",
      "ManufacturerModelName": "Prisma_fit",
      "Modality": "MR",
      "NumberOfAverages": 1.0,
      "NumberOfPhaseEncodingSteps": 104,
      "PercentPhaseFieldOfView": 100.0,
      "PercentSampling": 100.0,
      "PerformedProcedureStepStartTime": "135314.046000",
      "PhotometricInterpretation": "MONOCHROME2",
      "PixelBandwidth": 2290.0,
      "PixelRepresentation": 0,
      "PixelSpacing": [2.0, 2.0],
      "ProtocolName": "func_task-gamepad_run-1",
      "RepetitionTime": 1490.0,
      "Rows": 832,
      "SAR": 0.05450160683763,
      "SamplesPerPixel": 1,
      "ScanOptions": "FS",
      "ScanningSequence": "EP",
      "SequenceName": "epfid2d1_104",
      "SequenceVariant": [
        "SK",
        "SS"
],
      "SeriesDescription": "func_task-gamepad_run-1",
      "SeriesNumber": 10,
      "SeriesTime": "135935.977000",
      "SliceLocation": -35.063733117626,
      "SliceThickness": 2.0,
      "SmallestImagePixelValue": 0,
      "SoftwareVersions": "syngo MR E11",
      "SpacingBetweenSlices": 1.9999999910499,
      "SpecificCharacterSet": "ISO_IR 100",
      "StudyID": "1",
      "StudyTime": "135313.956000",
      "TransmitCoilName": "Body",
      "VariableFlipAngleFlag": "N",
      "WindowCenterWidthExplanation": "Algo1",
      "dBdt": 0.0},
    "slices": {}
  },
  "time": {
    "samples": {
      "AcquisitionNumber": [1, 2, 3, 4, 5, 6, 7, 8, 9, 10, 11, 12, 13, 14, 15, 16, 17, 18, 19, 20, 21, 22, 23, 24, 25, 26, 27, 28, 29, 30, 31, 32, 33, 34, 35, 36, 37, 38, 39, 40, 41, 42, 43, 44, 45, 46, 47, 48, 49, 50, 51, 52, 53, 54, 55, 56, 57, 58, 59, 60, 61, 62, 63, 64, 65, 66, 67, 68, 69, 70, 71, 72, 73, 74, 75, 76, 77, 78, 79, 80, 81, 82, 83, 84, 85, 86, 87, 88, 89, 90, 91, 92, 93, 94, 95, 96, 97, 98, 99, 100, 101, 102, 103, 104, 105, 106, 107, 108, 109, 110, 111, 112, 113, 114, 115, 116, 117, 118, 119, 120, 121, 122, 123, 124, 125, 126, 127, 128, 129, 130, 131, 132, 133, 134, 135, 136, 137, 138, 139, 140, 141, 142, 143, 144, 145, 146, 147, 148, 149, 150, 151, 152, 153, 154, 155, 156, 157, 158, 159, 160, 161, 162, 163, 164, 165, 166, 167, 168, 169, 170, 171, 172, 173, 174, 175, 176, 177, 178, 179, 180, 181, 182, 183, 184, 185, 186, 187, 188, 189, 190, 191, 192, 193, 194, 195, 196, 197, 198, 199, 200, 201, 202, 203, 204, 205, 206, 207],
      "AcquisitionTime": ["135806.297500", "135807.787500", "135809.277500", "135810.767500", "135812.257500", "135813.747500", "135815.237500", "135816.727500", "135818.217500", "135819.707500", "135821.197500", "135822.687500", "135824.177500", "135825.667500", "135827.157500", "135828.647500", "135830.137500", "135831.627500", "135833.117500", "135834.607500", "135836.097500", "135837.587500", "135839.077500", "135840.567500", "135842.057500", "135843.547500", "135845.037500", "135846.527500", "135848.017500", "135849.507500", "135850.997500", "135852.487500", "135853.977500", "135855.467500", "135856.957500", "135858.447500", "135859.937500", "135901.427500", "135902.917500", "135904.407500", "135905.897500", "135907.387500", "135908.877500", "135910.367500", "135911.857500", "135913.347500", "135914.837500", "135916.327500", "135917.817500", "135919.307500", "135920.797500", "135922.287500", "135923.777500", "135925.267500", "135926.757500", "135928.247500", "135929.737500", "135931.227500", "135932.717500", "135934.207500", "135935.697500", "135937.187500", "135938.677500", "135940.167500", "135941.657500", "135943.147500", "135944.637500", "135946.127500", "135947.617500", "135949.107500", "135950.597500", "135952.087500", "135953.577500", "135955.067500", "135956.557500", "135958.047500", "135959.537500", "140001.027500", "140002.517500", "140004.007500", "140005.497500", "140006.987500", "140008.477500", "140009.967500", "140011.457500", "140012.947500", "140014.437500", "140015.927500", "140017.417500", "140018.907500", "140020.397500", "140021.887500", "140023.377500", "140024.867500", "140026.357500", "140027.847500", "140029.337500", "140030.827500", "140032.317500", "140033.807500", "140035.297500", "140036.787500", "140038.277500", "140039.767500", "140041.257500", "140042.747500", "140044.237500", "140045.727500", "140047.217500", "140048.707500", "140050.197500", "140051.687500", "140053.177500", "140054.667500", "140056.157500", "140057.647500", "140059.137500", "140100.627500", "140102.117500", "140103.607500", "140105.097500", "140106.587500", "140108.077500", "140109.567500", "140111.057500", "140112.547500", "140114.037500", "140115.527500", "140117.017500", "140118.507500", "140119.997500", "140121.487500", "140122.977500", "140124.467500", "140125.957500", "140127.447500", "140128.937500", "140130.427500", "140131.917500", "140133.407500", "140134.897500", "140136.387500", "140137.877500", "140139.367500", "140140.857500", "140142.347500", "140143.837500", "140145.327500", "140146.817500", "140148.307500", "140149.797500", "140151.287500", "140152.777500", "140154.267500", "140155.757500", "140157.247500", "140158.737500", "140200.227500", "140201.717500", "140203.207500", "140204.697500", "140206.187500", "140207.677500", "140209.167500", "140210.657500", "140212.147500", "140213.637500", "140215.127500", "140216.617500", "140218.107500", "140219.597500", "140221.087500", "140222.577500", "140224.067500", "140225.557500", "140227.047500", "140228.537500", "140230.027500", "140231.517500", "140233.007500", "140234.497500", "140235.987500", "140237.477500", "140238.967500", "140240.457500", "140241.947500", "140243.437500", "140244.927500", "140246.417500", "140247.907500", "140249.397500", "140250.887500", "140252.377500", "140253.867500", "140255.357500", "140256.847500", "140258.337500", "140259.827500", "140301.317500", "140302.807500", "140304.297500", "140305.787500", "140307.277500", "140308.767500", "140310.257500", "140311.747500", "140313.237500"],
      "ContentTime": ["135935.980000", "135935.984000", "135935.987000", "135935.991000", "135935.994000", "135935.997000", "135936.002000", "135936.005000", "135936.009000", "135936.012000", "135936.015000", "135936.019000", "135936.022000", "135936.025000", "135936.029000", "135936.037000", "135936.040000", "135936.043000", "135936.051000", "135936.054000", "135936.058000", "135936.061000", "135936.064000", "135936.068000", "135936.071000", "135936.074000", "135936.078000", "135936.081000", "135936.093000", "135936.097000", "135936.100000", "135936.104000", "135936.111000", "135936.114000", "135936.117000", "135936.121000", "135955.942000", "135955.946000", "135955.949000", "135955.952000", "135955.956000", "135955.959000", "135955.962000", "135955.966000", "135955.969000", "135955.973000", "135955.976000", "135955.980000", "135955.983000", "135955.986000", "135955.990000", "135955.993000", "135955.996000", "135956.001000", "135956.004000", "135956.007000", "140015.943000", "140015.947000", "140015.950000", "140015.953000", "140015.957000", "140015.960000", "140015.963000", "140015.967000", "140015.970000", "140015.974000", "140015.977000", "140015.980000", "140015.984000", "140015.987000", "140015.990000", "140015.994000", "140015.997000", "140016.001000", "140016.004000", "140016.007000", "140035.943000", "140035.947000", "140035.950000", "140035.954000", "140035.957000", "140035.960000", "140035.964000", "140035.967000", "140035.975000", "140035.979000", "140035.982000", "140035.985000", "140035.989000", "140035.992000", "140035.995000", "140036.000000", "140036.003000", "140036.006000", "140036.010000", "140036.013000", "140036.016000", "140115.943000", "140115.947000", "140115.950000", "140115.953000", "140115.957000", "140115.960000", "140115.964000", "140115.967000", "140115.970000", "140115.974000", "140115.977000", "140115.980000", "140115.983000", "140115.987000", "140115.990000", "140115.994000", "140115.997000", "140116.001000", "140116.004000", "140116.007000", "140116.011000", "140116.014000", "140116.017000", "140116.021000", "140116.024000", "140116.027000", "140116.031000", "140116.034000", "140116.037000", "140155.943000", "140155.947000", "140155.958000", "140155.961000", "140155.964000", "140155.968000", "140155.971000", "140155.980000", "140155.983000", "140155.986000", "140155.990000", "140155.993000", "140155.997000", "140156.000000", "140156.004000", "140156.007000", "140156.011000", "140156.014000", "140156.018000", "140156.021000", "140156.024000", "140156.028000", "140156.031000", "140156.035000", "140156.038000", "140156.041000", "140156.045000", "140215.942000", "140215.946000", "140215.949000", "140215.953000", "140215.956000", "140215.959000", "140215.963000", "140215.966000", "140215.969000", "140215.973000", "140215.976000", "140215.979000", "140215.983000", "140255.943000", "140255.947000", "140255.950000", "140255.954000", "140255.957000", "140255.960000", "140255.964000", "140255.973000", "140255.976000", "140255.979000", "140255.983000", "140255.986000", "140255.989000", "140255.993000", "140255.996000", "140256.000000", "140256.004000", "140256.007000", "140256.010000", "140256.014000", "140256.017000", "140256.020000", "140256.024000", "140256.027000", "140256.030000", "140256.034000", "140256.037000", "140315.840000", "140315.843000", "140315.847000", "140315.850000", "140315.853000", "140315.857000", "140315.860000", "140315.864000", "140315.867000", "140315.871000", "140315.874000", "140315.877000", "140315.881000", "140315.884000"],
      "InstanceCreationTime": ["135935.980000", "135935.984000", "135935.987000", "135935.991000", "135935.994000", "135935.997000", "135936.002000", "135936.005000", "135936.009000", "135936.012000", "135936.015000", "135936.019000", "135936.022000", "135936.025000", "135936.029000", "135936.037000", "135936.040000", "135936.043000", "135936.051000", "135936.054000", "135936.058000", "135936.061000", "135936.064000", "135936.068000", "135936.071000", "135936.074000", "135936.078000", "135936.081000", "135936.093000", "135936.097000", "135936.100000", "135936.104000", "135936.111000", "135936.114000", "135936.117000", "135936.121000", "135955.942000", "135955.946000", "135955.949000", "135955.952000", "135955.956000", "135955.959000", "135955.962000", "135955.966000", "135955.969000", "135955.973000", "135955.976000", "135955.980000", "135955.983000", "135955.986000", "135955.990000", "135955.993000", "135955.996000", "135956.001000", "135956.004000", "135956.007000", "140015.943000", "140015.947000", "140015.950000", "140015.953000", "140015.957000", "140015.960000", "140015.963000", "140015.967000", "140015.970000", "140015.974000", "140015.977000", "140015.980000", "140015.984000", "140015.987000", "140015.990000", "140015.994000", "140015.997000", "140016.001000", "140016.004000", "140016.007000", "140035.943000", "140035.947000", "140035.950000", "140035.954000", "140035.957000", "140035.960000", "140035.964000", "140035.967000", "140035.975000", "140035.979000", "140035.982000", "140035.985000", "140035.989000", "140035.992000", "140035.995000", "140036.000000", "140036.003000", "140036.006000", "140036.010000", "140036.013000", "140036.016000", "140115.943000", "140115.947000", "140115.950000", "140115.953000", "140115.957000", "140115.960000", "140115.964000", "140115.967000", "140115.970000", "140115.974000", "140115.977000", "140115.980000", "140115.983000", "140115.987000", "140115.990000", "140115.994000", "140115.997000", "140116.001000", "140116.004000", "140116.007000", "140116.011000", "140116.014000", "140116.017000", "140116.021000", "140116.024000", "140116.027000", "140116.031000", "140116.034000", "140116.037000", "140155.943000", "140155.947000", "140155.958000", "140155.961000", "140155.964000", "140155.968000", "140155.971000", "140155.980000", "140155.983000", "140155.986000", "140155.990000", "140155.993000", "140155.997000", "140156.000000", "140156.004000", "140156.007000", "140156.011000", "140156.014000", "140156.018000", "140156.021000", "140156.024000", "140156.028000", "140156.031000", "140156.035000", "140156.038000", "140156.041000", "140156.045000", "140215.942000", "140215.946000", "140215.949000", "140215.953000", "140215.956000", "140215.959000", "140215.963000", "140215.966000", "140215.969000", "140215.973000", "140215.976000", "140215.979000", "140215.983000", "140255.943000", "140255.947000", "140255.950000", "140255.954000", "140255.957000", "140255.960000", "140255.964000", "140255.973000", "140255.976000", "140255.979000", "140255.983000", "140255.986000", "140255.989000", "140255.993000", "140255.996000", "140256.000000", "140256.004000", "140256.007000", "140256.010000", "140256.014000", "140256.017000", "140256.020000", "140256.024000", "140256.027000", "140256.030000", "140256.034000", "140256.037000", "140315.840000", "140315.843000", "140315.847000", "140315.850000", "140315.853000", "140315.857000", "140315.860000", "140315.864000", "140315.867000", "140315.871000", "140315.874000", "140315.877000", "140315.881000", "140315.884000"],
      "InstanceNumber": [1, 2, 3, 4, 5, 6, 7, 8, 9, 10, 11, 12, 13, 14, 15, 16, 17, 18, 19, 20, 21, 22, 23, 24, 25, 26, 27, 28, 29, 30, 31, 32, 33, 34, 35, 36, 37, 38, 39, 40, 41, 42, 43, 44, 45, 46, 47, 48, 49, 50, 51, 52, 53, 54, 55, 56, 57, 58, 59, 60, 61, 62, 63, 64, 65, 66, 67, 68, 69, 70, 71, 72, 73, 74, 75, 76, 77, 78, 79, 80, 81, 82, 83, 84, 85, 86, 87, 88, 89, 90, 91, 92, 93, 94, 95, 96, 97, 98, 99, 100, 101, 102, 103, 104, 105, 106, 107, 108, 109, 110, 111, 112, 113, 114, 115, 116, 117, 118, 119, 120, 121, 122, 123, 124, 125, 126, 127, 128, 129, 130, 131, 132, 133, 134, 135, 136, 137, 138, 139, 140, 141, 142, 143, 144, 145, 146, 147, 148, 149, 150, 151, 152, 153, 154, 155, 156, 157, 158, 159, 160, 161, 162, 163, 164, 165, 166, 167, 168, 169, 170, 171, 172, 173, 174, 175, 176, 177, 178, 179, 180, 181, 182, 183, 184, 185, 186, 187, 188, 189, 190, 191, 192, 193, 194, 195, 196, 197, 198, 199, 200, 201, 202, 203, 204, 205, 206, 207],
      "LargestImagePixelValue": [39278, 38257, 37896, 37660, 37047, 37094, 36830, 37194, 37127, 37157, 37171, 36981, 37253, 37141, 36982, 36823, 36939, 36560, 36591, 36969, 37484, 36682, 37013, 36596, 38317, 37443, 37237, 37115, 36827, 37095, 36834, 37222, 36852, 36839, 36738, 36872, 36927, 36982, 36608, 37016, 36597, 36426, 36913, 36717, 37067, 36857, 37104, 36532, 37158, 37103, 36546, 36661, 37082, 36785, 36625, 36999, 36883, 36827, 36689, 37167, 36864, 36850, 36839, 36758, 37186, 37152, 36883, 36812, 37052, 37155, 37126, 36912, 36715, 37211, 37519, 36995, 36948, 37371, 37087, 36708, 36885, 36738, 36963, 36745, 37048, 36845, 36792, 36897, 36663, 36684, 37033, 37089, 36506, 36625, 36624, 37220, 36859, 36644, 37055, 37389, 36873, 36889, 36885, 37009, 37022, 37271, 37322, 36657, 37288, 36664, 36674, 36989, 36817, 36928, 36850, 37064, 36879, 37219, 36891, 36966, 36807, 37081, 37114, 36922, 37393, 37134, 36940, 36715, 36516, 36884, 36650, 36637, 36709, 37050, 36909, 36870, 36685, 36600, 36586, 37261, 36751, 37125, 36991, 36883, 36999, 36402, 36516, 36765, 36754, 36673, 36798, 36784, 37239, 36740, 36705, 36992, 36831, 36979, 36893, 36508, 36590, 36532, 37176, 37276, 36645, 36916, 37036, 37032, 36748, 36873, 36581, 36490, 36617, 36778, 36608, 36429, 36374, 36377, 36513, 36534, 36873, 36241, 36566, 36513, 36531, 36387, 36879, 36367, 36421, 36605, 36591, 36299, 36579, 37043, 36437, 36324, 36823, 36718, 36836, 36543, 36880, 36691, 36808, 36582, 36960, 36663, 36732],
      "WindowCenter": [10209.0, 10180.0, 10176.0, 10177.0, 10170.0, 10155.0, 10147.0, 10134.0, 10148.0, 10166.0, 10160.0, 10170.0, 10167.0, 10167.0, 10141.0, 10143.0, 10159.0, 10164.0, 10156.0, 10169.0, 10159.0, 10128.0, 10126.0, 10132.0, 10141.0, 10154.0, 10168.0, 10150.0, 10119.0, 10117.0, 10114.0, 10145.0, 10161.0, 10163.0, 10156.0, 10145.0, 10151.0, 10157.0, 10161.0, 10167.0, 10155.0, 10137.0, 10127.0, 10126.0, 10133.0, 10142.0, 10148.0, 10146.0, 10156.0, 10157.0, 10160.0, 10155.0, 10158.0, 10143.0, 10135.0, 10150.0, 10145.0, 10157.0, 10152.0, 10152.0, 10135.0, 10126.0, 10126.0, 10135.0, 10144.0, 10152.0, 10135.0, 10126.0, 10117.0, 10117.0, 10123.0, 10142.0, 10154.0, 10160.0, 10142.0, 10124.0, 10125.0, 10138.0, 10141.0, 10129.0, 10133.0, 10127.0, 10141.0, 10141.0, 10168.0, 10164.0, 10154.0, 10129.0, 10125.0, 10143.0, 10160.0, 10149.0, 10113.0, 10111.0, 10148.0, 10145.0, 10151.0, 10137.0, 10136.0, 10132.0, 10132.0, 10136.0, 10145.0, 10160.0, 10160.0, 10154.0, 10137.0, 10128.0, 10117.0, 10114.0, 10125.0, 10146.0, 10152.0, 10134.0, 10110.0, 10123.0, 10109.0, 10115.0, 10133.0, 10159.0, 10149.0, 10136.0, 10118.0, 10100.0, 10106.0, 10108.0, 10119.0, 10125.0, 10129.0, 10130.0, 10133.0, 10118.0, 10119.0, 10126.0, 10149.0, 10146.0, 10146.0, 10131.0, 10110.0, 10109.0, 10119.0, 10142.0, 10152.0, 10147.0, 10135.0, 10106.0, 10095.0, 10107.0, 10117.0, 10138.0, 10152.0, 10146.0, 10144.0, 10146.0, 10135.0, 10134.0, 10135.0, 10136.0, 10135.0, 10114.0, 10086.0, 10093.0, 10114.0, 10131.0, 10137.0, 10145.0, 10145.0, 10145.0, 10129.0, 10120.0, 10110.0, 10109.0, 10112.0, 10117.0, 10119.0, 10113.0, 10104.0, 10103.0, 10100.0, 10109.0, 10108.0, 10105.0, 10111.0, 10119.0, 10128.0, 10122.0, 10118.0, 10121.0, 10130.0, 10147.0, 10148.0, 10142.0, 10139.0, 10146.0, 10140.0, 10124.0, 10113.0, 10111.0, 10110.0, 10106.0, 10101.0, 10120.0, 10126.0, 10121.0, 10135.0, 10127.0, 10121.0],
      "WindowWidth": [21761.0, 21675.0, 21654.0, 21650.0, 21633.0, 21597.0, 21579.0, 21544.0, 21575.0, 21621.0, 21609.0, 21631.0, 21620.0, 21620.0, 21563.0, 21569.0, 21602.0, 21619.0, 21599.0, 21627.0, 21601.0, 21530.0, 21523.0, 21534.0, 21553.0, 21587.0, 21620.0, 21576.0, 21511.0, 21503.0, 21498.0, 21568.0, 21609.0, 21615.0, 21601.0, 21575.0, 21585.0, 21596.0, 21610.0, 21622.0, 21595.0, 21552.0, 21527.0, 21525.0, 21541.0, 21565.0, 21577.0, 21575.0, 21593.0, 21595.0, 21604.0, 21595.0, 21599.0, 21564.0, 21545.0, 21580.0, 21570.0, 21595.0, 21585.0, 21586.0, 21544.0, 21524.0, 21526.0, 21547.0, 21567.0, 21586.0, 21545.0, 21522.0, 21504.0, 21502.0, 21517.0, 21562.0, 21591.0, 21603.0, 21558.0, 21517.0, 21521.0, 21551.0, 21560.0, 21534.0, 21539.0, 21528.0, 21558.0, 21557.0, 21620.0, 21611.0, 21588.0, 21530.0, 21521.0, 21562.0, 21602.0, 21575.0, 21496.0, 21489.0, 21579.0, 21569.0, 21579.0, 21549.0, 21546.0, 21536.0, 21536.0, 21545.0, 21567.0, 21601.0, 21600.0, 21587.0, 21545.0, 21524.0, 21499.0, 21491.0, 21520.0, 21570.0, 21582.0, 21540.0, 21485.0, 21513.0, 21483.0, 21498.0, 21539.0, 21597.0, 21577.0, 21541.0, 21502.0, 21461.0, 21474.0, 21482.0, 21511.0, 21521.0, 21532.0, 21532.0, 21536.0, 21503.0, 21507.0, 21524.0, 21574.0, 21571.0, 21566.0, 21533.0, 21483.0, 21483.0, 21506.0, 21561.0, 21582.0, 21572.0, 21540.0, 21479.0, 21452.0, 21476.0, 21504.0, 21554.0, 21585.0, 21572.0, 21564.0, 21571.0, 21541.0, 21537.0, 21540.0, 21545.0, 21539.0, 21495.0, 21430.0, 21443.0, 21491.0, 21531.0, 21547.0, 21566.0, 21565.0, 21564.0, 21528.0, 21506.0, 21483.0, 21483.0, 21492.0, 21500.0, 21503.0, 21490.0, 21470.0, 21468.0, 21460.0, 21482.0, 21478.0, 21473.0, 21488.0, 21506.0, 21525.0, 21514.0, 21502.0, 21512.0, 21532.0, 21574.0, 21576.0, 21562.0, 21554.0, 21567.0, 21554.0, 21516.0, 21489.0, 21483.0, 21481.0, 21476.0, 21462.0, 21506.0, 21517.0, 21510.0, 21537.0, 21519.0, 21505.0]
    },
    "slices": {}
  }
}