{
  "AcquisitionMatrixPE": 104,
  "AcquisitionNumber": 1,
  "AcquisitionTime": "16:16:9.050000",
  "B0FieldSource": "sub-06_ses-006_task-gamepad_run-01_part-mag_bold.nii.gz",
  "BandwidthPerPixelPhaseEncode": 17.17,
  "BaseResolution": 104,
  "BodyPartExamined": "BRAIN",
  "CoilCombinationMethod": "Sum of Squares",
  "ConsistencyInfo": "N4_VE11C_LATEST_20160120",
  "ConversionSoftware": "dcm2niix",
  "ConversionSoftwareVersion": "v1.0.20211006",
  "DerivedVendorReportedEchoSpacing": 0.000560011,
  "DeviceSerialNumber": "167006",
  "DwellTime": 2.1e-06,
  "EchoTime": 0.037,
  "EchoTrainLength": 104,
  "EffectiveEchoSpacing": 0.000560011,
  "FlipAngle": 52,
  "HeudiconvVersion": "0.10.0",
  "ImageComments": "Unaliased MB4/PE3/LB",
  "ImageOrientationPatientDICOM": [0.9985, -0.0502071, 0.0218616, 0.0546011, 0.943229, -0.327625],
  "ImageOrientationText": "Tra>Cor(-19.2)>Sag(0.2)",
  "ImageType": [
    "ORIGINAL",
    "PRIMARY",
    "M",
    "MB",
    "ND",
    "MOSAIC"
],
  "ImagingFrequency": 123.259,
  "InPlanePhaseEncodingDirectionDICOM": "COL",
  "InstitutionAddress": "Chemin Queen-Mary 4565,Montreal,District,CA,H3W 1W5",
  "InstitutionName": "IUGM",
  "InstitutionalDepartmentName": "Department",
  "MRAcquisitionType": "2D",
  "MagneticFieldStrength": 3,
  "Manufacturer": "Siemens",
  "ManufacturersModelName": "Prisma_fit",
  "MatrixCoilMode": "SENSE",
  "Modality": "MR",
  "MultibandAccelerationFactor": 4,
  "PartialFourier": 1,
  "PatientPosition": "HFS",
  "PercentPhaseFOV": 100,
  "PercentSampling": 100,
  "PhaseEncodingDirection": "j",
  "PhaseEncodingSteps": 104,
  "PhaseResolution": 1,
  "PixelBandwidth": 2290,
  "ProcedureStepDescription": "games^gamepad",
  "ProtocolName": "func_task-gamepad_run-1",
  "PulseSequenceDetails": "%CustomerSeq%\\cmrr_mbep2d_bold",
  "ReceiveCoilActiveElements": "HC1-7;NC1,2",
  "ReceiveCoilName": "HeadNeck_64",
  "ReconMatrixPE": 104,
  "RepetitionTime": 1.49,
  "SAR": 0.0393009,
  "ScanOptions": "FS",
  "ScanningSequence": "EP",
  "SequenceName": "epfid2d1_104",
  "SequenceVariant": "SK\\SS",
  "SeriesDescription": "func_task-gamepad_run-1",
  "SeriesNumber": 10,
  "ShimSetting": [635, -7263, -8815, 568, 22, -219, -60, -31],
  "SliceThickness": 2,
  "SliceTiming": [0, 0.785, 0.0975, 0.8825, 0.195, 0.98, 0.295, 1.0775, 0.3925, 1.175, 0.49, 1.275, 0.5875, 1.3725, 0.685, 0, 0.785, 0.0975, 0.8825, 0.195, 0.98, 0.295, 1.0775, 0.3925, 1.175, 0.49, 1.275, 0.5875, 1.3725, 0.685, 0, 0.785, 0.0975, 0.8825, 0.195, 0.98, 0.295, 1.0775, 0.3925, 1.175, 0.49, 1.275, 0.5875, 1.3725, 0.685, 0, 0.785, 0.0975, 0.8825, 0.195, 0.98, 0.295, 1.0775, 0.3925, 1.175, 0.49, 1.275, 0.5875, 1.3725, 0.685],
  "SoftwareVersions": "syngo MR E11",
  "SpacingBetweenSlices": 2,
  "StationName": "MRC35049",
  "TaskName": "gamepad",
  "TotalReadoutTime": 0.0576811,
  "TxRefAmp": 242.938,
  "WipMemBlock": "70c52a1f-fc5b-42b5-b6b2-1a90afc1794f||Sequence: R016 ve11c/master r/e634e98; Dec 19 2017 11:00:25 by eja",
  "dcmmeta_affine": [
    [-1.9969990253448486, 0.10920227319002151, 0.008342794142663479, 101.24549102783203],
    [0.10041423887014389, 1.8864576816558838, -0.656653881072998, -71.40653991699219],
    [0.0437232106924057, 0.6552497148513794, 1.8891098499298096, -61.31117248535156],
    [0.0, 0.0, 0.0, 1.0]
],
  "dcmmeta_reorient_transform": [
    [0.0, -1.0, 0.0, 103.0],
    [1.0, 0.0, 0.0, 0.0],
    [0.0, 0.0, 1.0, 0.0],
    [0.0, 0.0, 0.0, 1.0]
],
  "dcmmeta_shape": [104, 104, 60, 207],
  "dcmmeta_slice_dim": 2,
  "dcmmeta_version": 0.6,
  "global": {
    "const": {
      "AcquisitionMatrix": [104, 0, 0, 104],
      "AngioFlag": "N",
      "BitsAllocated": 16,
      "BitsStored": 16,
      "BodyPartExamined": "BRAIN",
      "Columns": 832,
      "EchoNumbers": 1,
      "EchoTime": 37.0,
      "EchoTrainLength": 104,
      "FlipAngle": 52.0,
      "HighBit": 15,
      "ImageOrientationPatient": [0.99849953194175, -0.0502071199408, 0.02186160605622, 0.054601136963, 0.94322885331422, -0.3276248557694],
      "ImagePositionPatient": [-879.15061271848, -773.01842756462, 228.77519458348],
      "ImageType": [
        "ORIGINAL",
        "PRIMARY",
        "M",
        "MB",
        "ND",
        "MOSAIC"
],
      "ImagedNucleus": "1H",
      "ImagingFrequency": 123.259062,
      "InPlanePhaseEncodingDirection": "COL",
      "MRAcquisitionType": "2D",
      "MagneticFieldStrength": 3.0,
      "Manufacturer": "SIEMENS",
      "ManufacturerModelName": "Prisma_fit",
      "Modality": "MR",
      "NumberOfAverages": 1.0,
      "NumberOfPhaseEncodingSteps": 104,
      "PercentPhaseFieldOfView": 100.0,
      "PercentSampling": 100.0,
      "PerformedProcedureStepStartTime": "161235.660000",
      "PhotometricInterpretation": "MONOCHROME2",
      "PixelBandwidth": 2290.0,
      "PixelRepresentation": 0,
      "PixelSpacing": [2.0, 2.0],
      "ProtocolName": "func_task-gamepad_run-1",
      "RepetitionTime": 1490.0,
      "Rows": 832,
      "SAR": 0.03930086529274,
      "SamplesPerPixel": 1,
      "ScanOptions": "FS",
      "ScanningSequence": "EP",
      "SequenceName": "epfid2d1_104",
      "SequenceVariant": [
        "SK",
        "SS"
],
      "SeriesDescription": "func_task-gamepad_run-1",
      "SeriesNumber": 10,
      "SeriesTime": "161721.706000",
      "SliceLocation": -34.044744707191,
      "SliceThickness": 2.0,
      "SmallestImagePixelValue": 0,
      "SoftwareVersions": "syngo MR E11",
      "SpacingBetweenSlices": 2.000000007717,
      "SpecificCharacterSet": "ISO_IR 100",
      "StudyID": "1",
      "StudyTime": "161235.582000",
      "TransmitCoilName": "Body",
      "VariableFlipAngleFlag": "N",
      "WindowCenterWidthExplanation": "Algo1",
      "dBdt": 0.0},
    "slices": {}
  },
  "time": {
    "samples": {
      "AcquisitionNumber": [1, 2, 3, 4, 5, 6, 7, 8, 9, 10, 11, 12, 13, 14, 15, 16, 17, 18, 19, 20, 21, 22, 23, 24, 25, 26, 27, 28, 29, 30, 31, 32, 33, 34, 35, 36, 37, 38, 39, 40, 41, 42, 43, 44, 45, 46, 47, 48, 49, 50, 51, 52, 53, 54, 55, 56, 57, 58, 59, 60, 61, 62, 63, 64, 65, 66, 67, 68, 69, 70, 71, 72, 73, 74, 75, 76, 77, 78, 79, 80, 81, 82, 83, 84, 85, 86, 87, 88, 89, 90, 91, 92, 93, 94, 95, 96, 97, 98, 99, 100, 101, 102, 103, 104, 105, 106, 107, 108, 109, 110, 111, 112, 113, 114, 115, 116, 117, 118, 119, 120, 121, 122, 123, 124, 125, 126, 127, 128, 129, 130, 131, 132, 133, 134, 135, 136, 137, 138, 139, 140, 141, 142, 143, 144, 145, 146, 147, 148, 149, 150, 151, 152, 153, 154, 155, 156, 157, 158, 159, 160, 161, 162, 163, 164, 165, 166, 167, 168, 169, 170, 171, 172, 173, 174, 175, 176, 177, 178, 179, 180, 181, 182, 183, 184, 185, 186, 187, 188, 189, 190, 191, 192, 193, 194, 195, 196, 197, 198, 199, 200, 201, 202, 203, 204, 205, 206, 207],
      "AcquisitionTime": ["161609.050000", "161610.540000", "161612.030000", "161613.520000", "161615.010000", "161616.500000", "161617.990000", "161619.480000", "161620.970000", "161622.460000", "161623.950000", "161625.440000", "161626.930000", "161628.420000", "161629.910000", "161631.400000", "161632.890000", "161634.380000", "161635.870000", "161637.360000", "161638.850000", "161640.340000", "161641.830000", "161643.320000", "161644.810000", "161646.300000", "161647.790000", "161649.280000", "161650.770000", "161652.260000", "161653.750000", "161655.240000", "161656.730000", "161658.220000", "161659.710000", "161701.200000", "161702.690000", "161704.180000", "161705.670000", "161707.160000", "161708.650000", "161710.140000", "161711.630000", "161713.120000", "161714.610000", "161716.100000", "161717.590000", "161719.080000", "161720.570000", "161722.060000", "161723.550000", "161725.040000", "161726.530000", "161728.020000", "161729.510000", "161731.000000", "161732.490000", "161733.980000", "161735.470000", "161736.960000", "161738.450000", "161739.940000", "161741.430000", "161742.920000", "161744.410000", "161745.900000", "161747.390000", "161748.880000", "161750.370000", "161751.860000", "161753.350000", "161754.840000", "161756.330000", "161757.820000", "161759.310000", "161800.800000", "161802.290000", "161803.780000", "161805.270000", "161806.760000", "161808.250000", "161809.740000", "161811.230000", "161812.720000", "161814.210000", "161815.700000", "161817.190000", "161818.680000", "161820.170000", "161821.660000", "161823.150000", "161824.640000", "161826.130000", "161827.620000", "161829.110000", "161830.600000", "161832.090000", "161833.580000", "161835.070000", "161836.560000", "161838.050000", "161839.540000", "161841.030000", "161842.520000", "161844.010000", "161845.500000", "161846.990000", "161848.480000", "161849.970000", "161851.460000", "161852.950000", "161854.440000", "161855.930000", "161857.420000", "161858.910000", "161900.400000", "161901.890000", "161903.380000", "161904.870000", "161906.360000", "161907.850000", "161909.340000", "161910.830000", "161912.320000", "161913.810000", "161915.300000", "161916.790000", "161918.280000", "161919.770000", "161921.260000", "161922.750000", "161924.240000", "161925.730000", "161927.220000", "161928.710000", "161930.200000", "161931.690000", "161933.180000", "161934.670000", "161936.160000", "161937.650000", "161939.140000", "161940.630000", "161942.120000", "161943.610000", "161945.100000", "161946.590000", "161948.080000", "161949.570000", "161951.060000", "161952.550000", "161954.040000", "161955.530000", "161957.020000", "161958.510000", "162000.000000", "162001.490000", "162002.980000", "162004.470000", "162005.960000", "162007.450000", "162008.940000", "162010.430000", "162011.920000", "162013.410000", "162014.900000", "162016.390000", "162017.880000", "162019.370000", "162020.860000", "162022.350000", "162023.840000", "162025.330000", "162026.820000", "162028.310000", "162029.800000", "162031.290000", "162032.780000", "162034.270000", "162035.760000", "162037.250000", "162038.740000", "162040.230000", "162041.720000", "162043.210000", "162044.700000", "162046.190000", "162047.680000", "162049.170000", "162050.660000", "162052.150000", "162053.640000", "162055.130000", "162056.620000", "162058.110000", "162059.600000", "162101.090000", "162102.580000", "162104.070000", "162105.560000", "162107.050000", "162108.540000", "162110.030000", "162111.520000", "162113.010000", "162114.500000", "162115.990000"],
      "ContentTime": ["161721.710000", "161721.713000", "161721.717000", "161721.720000", "161721.723000", "161721.727000", "161721.730000", "161721.733000", "161721.737000", "161721.740000", "161721.743000", "161721.746000", "161721.750000", "161721.753000", "161721.756000", "161721.759000", "161721.763000", "161721.766000", "161721.769000", "161741.670000", "161741.674000", "161741.677000", "161741.680000", "161741.683000", "161741.687000", "161741.690000", "161741.693000", "161741.697000", "161741.700000", "161741.703000", "161741.706000", "161741.710000", "161741.713000", "161741.716000", "161741.720000", "161741.723000", "161741.726000", "161741.729000", "161741.733000", "161741.736000", "161801.671000", "161801.675000", "161801.678000", "161801.681000", "161801.684000", "161801.688000", "161801.707000", "161801.710000", "161801.718000", "161801.721000", "161801.725000", "161801.728000", "161801.731000", "161801.735000", "161801.738000", "161801.741000", "161801.744000", "161801.748000", "161801.751000", "161801.754000", "161821.670000", "161821.674000", "161821.677000", "161821.680000", "161821.684000", "161821.687000", "161821.690000", "161821.693000", "161821.697000", "161821.700000", "161821.703000", "161821.706000", "161821.710000", "161821.713000", "161821.716000", "161821.720000", "161821.723000", "161821.726000", "161821.729000", "161821.733000", "161841.670000", "161841.674000", "161841.677000", "161841.680000", "161841.684000", "161841.687000", "161841.690000", "161841.693000", "161841.697000", "161841.700000", "161841.703000", "161841.707000", "161841.710000", "161841.713000", "161841.716000", "161841.720000", "161841.723000", "161841.726000", "161841.730000", "161841.733000", "161841.736000", "161921.670000", "161921.674000", "161921.677000", "161921.680000", "161921.684000", "161921.687000", "161921.690000", "161921.694000", "161921.697000", "161921.700000", "161921.703000", "161921.707000", "161921.710000", "161921.713000", "161921.717000", "161921.720000", "161921.723000", "161921.726000", "161921.730000", "161921.733000", "161921.736000", "161921.740000", "161921.743000", "161921.746000", "161921.749000", "161921.753000", "161921.756000", "161921.759000", "162001.670000", "162001.674000", "162001.677000", "162001.680000", "162001.684000", "162001.687000", "162001.690000", "162001.694000", "162001.697000", "162001.700000", "162001.704000", "162001.707000", "162001.710000", "162001.714000", "162001.719000", "162001.724000", "162001.728000", "162001.731000", "162001.734000", "162001.749000", "162001.753000", "162001.756000", "162001.759000", "162001.763000", "162001.766000", "162001.769000", "162041.670000", "162041.674000", "162041.677000", "162041.680000", "162041.684000", "162041.687000", "162041.690000", "162041.694000", "162041.697000", "162041.700000", "162041.703000", "162041.707000", "162041.710000", "162041.713000", "162041.717000", "162041.720000", "162041.723000", "162041.727000", "162041.730000", "162041.733000", "162041.736000", "162041.740000", "162041.743000", "162041.746000", "162041.750000", "162041.753000", "162041.756000", "162117.768000", "162117.772000", "162117.775000", "162117.778000", "162117.781000", "162117.785000", "162117.788000", "162117.791000", "162117.795000", "162117.798000", "162117.801000", "162117.805000", "162117.808000", "162117.811000", "162117.815000", "162117.818000", "162117.821000", "162117.825000", "162117.828000", "162117.831000", "162117.835000", "162117.838000", "162117.841000", "162117.844000", "162117.848000"],
      "InstanceCreationTime": ["161721.710000", "161721.713000", "161721.717000", "161721.720000", "161721.723000", "161721.727000", "161721.730000", "161721.733000", "161721.737000", "161721.740000", "161721.743000", "161721.746000", "161721.750000", "161721.753000", "161721.756000", "161721.759000", "161721.763000", "161721.766000", "161721.769000", "161741.670000", "161741.674000", "161741.677000", "161741.680000", "161741.683000", "161741.687000", "161741.690000", "161741.693000", "161741.697000", "161741.700000", "161741.703000", "161741.706000", "161741.710000", "161741.713000", "161741.716000", "161741.720000", "161741.723000", "161741.726000", "161741.729000", "161741.733000", "161741.736000", "161801.671000", "161801.675000", "161801.678000", "161801.681000", "161801.684000", "161801.688000", "161801.707000", "161801.710000", "161801.718000", "161801.721000", "161801.725000", "161801.728000", "161801.731000", "161801.735000", "161801.738000", "161801.741000", "161801.744000", "161801.748000", "161801.751000", "161801.754000", "161821.670000", "161821.674000", "161821.677000", "161821.680000", "161821.684000", "161821.687000", "161821.690000", "161821.693000", "161821.697000", "161821.700000", "161821.703000", "161821.706000", "161821.710000", "161821.713000", "161821.716000", "161821.720000", "161821.723000", "161821.726000", "161821.729000", "161821.733000", "161841.670000", "161841.674000", "161841.677000", "161841.680000", "161841.684000", "161841.687000", "161841.690000", "161841.693000", "161841.697000", "161841.700000", "161841.703000", "161841.707000", "161841.710000", "161841.713000", "161841.716000", "161841.720000", "161841.723000", "161841.726000", "161841.730000", "161841.733000", "161841.736000", "161921.670000", "161921.674000", "161921.677000", "161921.680000", "161921.684000", "161921.687000", "161921.690000", "161921.694000", "161921.697000", "161921.700000", "161921.703000", "161921.707000", "161921.710000", "161921.713000", "161921.717000", "161921.720000", "161921.723000", "161921.726000", "161921.730000", "161921.733000", "161921.736000", "161921.740000", "161921.743000", "161921.746000", "161921.749000", "161921.753000", "161921.756000", "161921.759000", "162001.670000", "162001.674000", "162001.677000", "162001.680000", "162001.684000", "162001.687000", "162001.690000", "162001.694000", "162001.697000", "162001.700000", "162001.704000", "162001.707000", "162001.710000", "162001.714000", "162001.719000", "162001.724000", "162001.728000", "162001.731000", "162001.734000", "162001.749000", "162001.753000", "162001.756000", "162001.759000", "162001.763000", "162001.766000", "162001.769000", "162041.670000", "162041.674000", "162041.677000", "162041.680000", "162041.684000", "162041.687000", "162041.690000", "162041.694000", "162041.697000", "162041.700000", "162041.703000", "162041.707000", "162041.710000", "162041.713000", "162041.717000", "162041.720000", "162041.723000", "162041.727000", "162041.730000", "162041.733000", "162041.736000", "162041.740000", "162041.743000", "162041.746000", "162041.750000", "162041.753000", "162041.756000", "162117.768000", "162117.772000", "162117.775000", "162117.778000", "162117.781000", "162117.785000", "162117.788000", "162117.791000", "162117.795000", "162117.798000", "162117.801000", "162117.805000", "162117.808000", "162117.811000", "162117.815000", "162117.818000", "162117.821000", "162117.825000", "162117.828000", "162117.831000", "162117.835000", "162117.838000", "162117.841000", "162117.844000", "162117.848000"],
      "InstanceNumber": [1, 2, 3, 4, 5, 6, 7, 8, 9, 10, 11, 12, 13, 14, 15, 16, 17, 18, 19, 20, 21, 22, 23, 24, 25, 26, 27, 28, 29, 30, 31, 32, 33, 34, 35, 36, 37, 38, 39, 40, 41, 42, 43, 44, 45, 46, 47, 48, 49, 50, 51, 52, 53, 54, 55, 56, 57, 58, 59, 60, 61, 62, 63, 64, 65, 66, 67, 68, 69, 70, 71, 72, 73, 74, 75, 76, 77, 78, 79, 80, 81, 82, 83, 84, 85, 86, 87, 88, 89, 90, 91, 92, 93, 94, 95, 96, 97, 98, 99, 100, 101, 102, 103, 104, 105, 106, 107, 108, 109, 110, 111, 112, 113, 114, 115, 116, 117, 118, 119, 120, 121, 122, 123, 124, 125, 126, 127, 128, 129, 130, 131, 132, 133, 134, 135, 136, 137, 138, 139, 140, 141, 142, 143, 144, 145, 146, 147, 148, 149, 150, 151, 152, 153, 154, 155, 156, 157, 158, 159, 160, 161, 162, 163, 164, 165, 166, 167, 168, 169, 170, 171, 172, 173, 174, 175, 176, 177, 178, 179, 180, 181, 182, 183, 184, 185, 186, 187, 188, 189, 190, 191, 192, 193, 194, 195, 196, 197, 198, 199, 200, 201, 202, 203, 204, 205, 206, 207],
      "LargestImagePixelValue": [43285, 42364, 41115, 41013, 40887, 40165, 40913, 40349, 40745, 39865, 40421, 40530, 40520, 40143, 40234, 41045, 40324, 40224, 41125, 40563, 40397, 40574, 40228, 40353, 40042, 40009, 40221, 39998, 40161, 40064, 40554, 40381, 40410, 40257, 40283, 40480, 40320, 40241, 40205, 40814, 40561, 40265, 37281, 40483, 40446, 40537, 40588, 40490, 40477, 40564, 40107, 40436, 40351, 40119, 40301, 40257, 40429, 39888, 40307, 39844, 39891, 40256, 39976, 39785, 39842, 39874, 39999, 39879, 39720, 39648, 39739, 39462, 39036, 38930, 38932, 39493, 39760, 39094, 39436, 38679, 38439, 38822, 39406, 40584, 38393, 39004, 38833, 38285, 39000, 38851, 38948, 39171, 39278, 39479, 38629, 39505, 39614, 40213, 39918, 40801, 40712, 40666, 40473, 40247, 39902, 39955, 39917, 39878, 40324, 39507, 39931, 39638, 39737, 39891, 39826, 39786, 40019, 40198, 40665, 39997, 40278, 40391, 40645, 40428, 40576, 40108, 40533, 40197, 40169, 40712, 39979, 39859, 39607, 39672, 39258, 39190, 39452, 39350, 39486, 39484, 38957, 39100, 38962, 39332, 38434, 38515, 38871, 38586, 39027, 40246, 40088, 39680, 39334, 38029, 39250, 38582, 38231, 38237, 38281, 38054, 38326, 37881, 38042, 37973, 37975, 38365, 38072, 38446, 38142, 38114, 38502, 38243, 38649, 38392, 38406, 38155, 38289, 38655, 38310, 38458, 38751, 38634, 38347, 39017, 38864, 38943, 38616, 38436, 38016, 38206, 38072, 37871, 38238, 38011, 38158, 37950, 37787, 38336, 38182, 38455, 38098, 38222, 37593, 38411, 37995, 38130, 37633],
      "WindowCenter": [10344.0, 10284.0, 10256.0, 10267.0, 10260.0, 10221.0, 10199.0, 10183.0, 10181.0, 10182.0, 10207.0, 10239.0, 10246.0, 10250.0, 10243.0, 10268.0, 10259.0, 10242.0, 10229.0, 10213.0, 10205.0, 10205.0, 10197.0, 10185.0, 10178.0, 10177.0, 10188.0, 10190.0, 10198.0, 10215.0, 10228.0, 10237.0, 10257.0, 10251.0, 10236.0, 10237.0, 10237.0, 10247.0, 10242.0, 10230.0, 10229.0, 10246.0, 10223.0, 10246.0, 10256.0, 10273.0, 10277.0, 10261.0, 10229.0, 10211.0, 10217.0, 10230.0, 10256.0, 10261.0, 10245.0, 10226.0, 10234.0, 10242.0, 10243.0, 10235.0, 10234.0, 10234.0, 10228.0, 10228.0, 10241.0, 10246.0, 10261.0, 10254.0, 10258.0, 10259.0, 10247.0, 10225.0, 10215.0, 10198.0, 10191.0, 10202.0, 10210.0, 10211.0, 10217.0, 10227.0, 10218.0, 10202.0, 10206.0, 10225.0, 10212.0, 10237.0, 10187.0, 10157.0, 10155.0, 10139.0, 10134.0, 10151.0, 10175.0, 10192.0, 10208.0, 10242.0, 10261.0, 10274.0, 10269.0, 10262.0, 10246.0, 10256.0, 10262.0, 10272.0, 10272.0, 10273.0, 10258.0, 10250.0, 10244.0, 10219.0, 10238.0, 10232.0, 10223.0, 10223.0, 10230.0, 10246.0, 10247.0, 10239.0, 10243.0, 10238.0, 10238.0, 10237.0, 10251.0, 10247.0, 10245.0, 10238.0, 10228.0, 10231.0, 10238.0, 10249.0, 10234.0, 10237.0, 10228.0, 10220.0, 10216.0, 10210.0, 10207.0, 10200.0, 10214.0, 10248.0, 10259.0, 10240.0, 10220.0, 10206.0, 10203.0, 10187.0, 10184.0, 10192.0, 10193.0, 10181.0, 10166.0, 10151.0, 10172.0, 10193.0, 10198.0, 10177.0, 10157.0, 10155.0, 10169.0, 10169.0, 10177.0, 10171.0, 10173.0, 10163.0, 10147.0, 10151.0, 10161.0, 10175.0, 10177.0, 10185.0, 10191.0, 10193.0, 10208.0, 10219.0, 10221.0, 10216.0, 10220.0, 10227.0, 10221.0, 10222.0, 10214.0, 10217.0, 10214.0, 10255.0, 10254.0, 10258.0, 10222.0, 10176.0, 10151.0, 10147.0, 10154.0, 10142.0, 10137.0, 10130.0, 10129.0, 10122.0, 10138.0, 10166.0, 10172.0, 10163.0, 10147.0, 10145.0, 10141.0, 10165.0, 10171.0, 10173.0, 10181.0],
      "WindowWidth": [22296.0, 22122.0, 22042.0, 22050.0, 22029.0, 21938.0, 21881.0, 21849.0, 21840.0, 21841.0, 21899.0, 21969.0, 21987.0, 21999.0, 21979.0, 22033.0, 22019.0, 21977.0, 21946.0, 21910.0, 21891.0, 21889.0, 21871.0, 21850.0, 21836.0, 21835.0, 21857.0, 21866.0, 21882.0, 21920.0, 21947.0, 21966.0, 22015.0, 22002.0, 21969.0, 21965.0, 21966.0, 21991.0, 21980.0, 21951.0, 21945.0, 21988.0, 21957.0, 21987.0, 22008.0, 22048.0, 22060.0, 22027.0, 21954.0, 21912.0, 21927.0, 21952.0, 22012.0, 22024.0, 21986.0, 21942.0, 21961.0, 21983.0, 21985.0, 21967.0, 21965.0, 21962.0, 21952.0, 21953.0, 21980.0, 21999.0, 22034.0, 22013.0, 22021.0, 22027.0, 21996.0, 21949.0, 21927.0, 21888.0, 21871.0, 21891.0, 21909.0, 21913.0, 21924.0, 21945.0, 21929.0, 21893.0, 21901.0, 21943.0, 21923.0, 21980.0, 21869.0, 21795.0, 21788.0, 21751.0, 21736.0, 21774.0, 21828.0, 21870.0, 21912.0, 21987.0, 22027.0, 22052.0, 22041.0, 22022.0, 21986.0, 22006.0, 22023.0, 22045.0, 22049.0, 22052.0, 22021.0, 22002.0, 21985.0, 21936.0, 21974.0, 21962.0, 21941.0, 21941.0, 21957.0, 21993.0, 21995.0, 21978.0, 21982.0, 21975.0, 21974.0, 21973.0, 22003.0, 21995.0, 21988.0, 21974.0, 21951.0, 21960.0, 21976.0, 22000.0, 21971.0, 21975.0, 21955.0, 21938.0, 21932.0, 21921.0, 21911.0, 21895.0, 21927.0, 22004.0, 22031.0, 21991.0, 21944.0, 21909.0, 21907.0, 21863.0, 21848.0, 21867.0, 21870.0, 21840.0, 21807.0, 21776.0, 21824.0, 21896.0, 21890.0, 21839.0, 21791.0, 21784.0, 21813.0, 21813.0, 21827.0, 21816.0, 21820.0, 21794.0, 21759.0, 21768.0, 21798.0, 21828.0, 21835.0, 21851.0, 21862.0, 21870.0, 21902.0, 21928.0, 21934.0, 21925.0, 21932.0, 21947.0, 21937.0, 21939.0, 21922.0, 21926.0, 21919.0, 22011.0, 22006.0, 22014.0, 21934.0, 21832.0, 21774.0, 21765.0, 21781.0, 21757.0, 21743.0, 21729.0, 21730.0, 21712.0, 21748.0, 21808.0, 21822.0, 21800.0, 21768.0, 21762.0, 21757.0, 21804.0, 21821.0, 21827.0, 21848.0]
    },
    "slices": {}
  }
}