{
  "AcquisitionMatrixPE": 104,
  "AcquisitionNumber": 1,
  "AcquisitionTime": "16:22:43.997500",
  "BandwidthPerPixelPhaseEncode": 17.17,
  "BaseResolution": 104,
  "BodyPartExamined": "BRAIN",
  "CoilCombinationMethod": "Sum of Squares",
  "ConsistencyInfo": "N4_VE11C_LATEST_20160120",
  "ConversionSoftware": "dcm2niix",
  "ConversionSoftwareVersion": "v1.0.20211006",
  "DerivedVendorReportedEchoSpacing": 0.000560011,
  "DeviceSerialNumber": "167006",
  "DwellTime": 2.1e-06,
  "EchoTime": 0.037,
  "EchoTrainLength": 104,
  "EffectiveEchoSpacing": 0.000560011,
  "FlipAngle": 52,
  "HeudiconvVersion": "0.10.0",
  "ImageComments": "Unaliased MB4/PE3/LB",
  "ImageOrientationPatientDICOM": [0.9985, -0.0502071, 0.0218616, 0.0546011, 0.943229, -0.327625],
  "ImageOrientationText": "Tra>Cor(-19.2)>Sag(0.2)",
  "ImageType": [
    "ORIGINAL",
    "PRIMARY",
    "M",
    "MB",
    "ND",
    "MOSAIC"
],
  "ImagingFrequency": 123.259,
  "InPlanePhaseEncodingDirectionDICOM": "COL",
  "InstitutionAddress": "Chemin Queen-Mary 4565,Montreal,District,CA,H3W 1W5",
  "InstitutionName": "IUGM",
  "InstitutionalDepartmentName": "Department",
  "MRAcquisitionType": "2D",
  "MagneticFieldStrength": 3,
  "Manufacturer": "Siemens",
  "ManufacturersModelName": "Prisma_fit",
  "MatrixCoilMode": "SENSE",
  "Modality": "MR",
  "MultibandAccelerationFactor": 4,
  "PartialFourier": 1,
  "PatientPosition": "HFS",
  "PercentPhaseFOV": 100,
  "PercentSampling": 100,
  "PhaseEncodingDirection": "j",
  "PhaseEncodingSteps": 104,
  "PhaseResolution": 1,
  "PixelBandwidth": 2290,
  "ProcedureStepDescription": "games^gamepad",
  "ProtocolName": "func_task-gamepad_run-2",
  "PulseSequenceDetails": "%CustomerSeq%\\cmrr_mbep2d_bold",
  "ReceiveCoilActiveElements": "HC1-7;NC1,2",
  "ReceiveCoilName": "HeadNeck_64",
  "ReconMatrixPE": 104,
  "RepetitionTime": 1.49,
  "SAR": 0.0393009,
  "ScanOptions": "FS",
  "ScanningSequence": "EP",
  "SequenceName": "epfid2d1_104",
  "SequenceVariant": "SK\\SS",
  "SeriesDescription": "func_task-gamepad_run-2",
  "SeriesNumber": 13,
  "ShimSetting": [635, -7263, -8815, 568, 22, -219, -60, -31],
  "SliceThickness": 2,
  "SliceTiming": [0, 0.7825, 0.0975, 0.8825, 0.195, 0.98, 0.2925, 1.0775, 0.3925, 1.175, 0.49, 1.2725, 0.5875, 1.3725, 0.685, 0, 0.7825, 0.0975, 0.8825, 0.195, 0.98, 0.2925, 1.0775, 0.3925, 1.175, 0.49, 1.2725, 0.5875, 1.3725, 0.685, 0, 0.7825, 0.0975, 0.8825, 0.195, 0.98, 0.2925, 1.0775, 0.3925, 1.175, 0.49, 1.2725, 0.5875, 1.3725, 0.685, 0, 0.7825, 0.0975, 0.8825, 0.195, 0.98, 0.2925, 1.0775, 0.3925, 1.175, 0.49, 1.2725, 0.5875, 1.3725, 0.685],
  "SoftwareVersions": "syngo MR E11",
  "SpacingBetweenSlices": 2,
  "StationName": "MRC35049",
  "TaskName": "gamepad",
  "TotalReadoutTime": 0.0576811,
  "TxRefAmp": 242.938,
  "WipMemBlock": "00766912-10c7-4dd2-9e84-239a43b77731||Sequence: R016 ve11c/master r/e634e98; Dec 19 2017 11:00:25 by eja",
  "dcmmeta_affine": [
    [-1.9969990253448486, 0.10920227319002151, 0.008342794142663479, 101.24549102783203],
    [0.10041423887014389, 1.8864576816558838, -0.656653881072998, -71.40653991699219],
    [0.0437232106924057, 0.6552497148513794, 1.8891098499298096, -61.31117248535156],
    [0.0, 0.0, 0.0, 1.0]
],
  "dcmmeta_reorient_transform": [
    [0.0, -1.0, 0.0, 103.0],
    [1.0, 0.0, 0.0, 0.0],
    [0.0, 0.0, 1.0, 0.0],
    [0.0, 0.0, 0.0, 1.0]
],
  "dcmmeta_shape": [104, 104, 60, 207],
  "dcmmeta_slice_dim": 2,
  "dcmmeta_version": 0.6,
  "global": {
    "const": {
      "AcquisitionMatrix": [104, 0, 0, 104],
      "AngioFlag": "N",
      "BitsAllocated": 16,
      "BitsStored": 16,
      "BodyPartExamined": "BRAIN",
      "Columns": 832,
      "EchoNumbers": 1,
      "EchoTime": 37.0,
      "EchoTrainLength": 104,
      "FlipAngle": 52.0,
      "HighBit": 15,
      "ImageOrientationPatient": [0.99849953194175, -0.0502071199408, 0.02186160605622, 0.054601136963, 0.94322885331422, -0.3276248557694],
      "ImagePositionPatient": [-879.15061271848, -773.01842756462, 228.77519458348],
      "ImageType": [
        "ORIGINAL",
        "PRIMARY",
        "M",
        "MB",
        "ND",
        "MOSAIC"
],
      "ImagedNucleus": "1H",
      "ImagingFrequency": 123.259065,
      "InPlanePhaseEncodingDirection": "COL",
      "MRAcquisitionType": "2D",
      "MagneticFieldStrength": 3.0,
      "Manufacturer": "SIEMENS",
      "ManufacturerModelName": "Prisma_fit",
      "Modality": "MR",
      "NumberOfAverages": 1.0,
      "NumberOfPhaseEncodingSteps": 104,
      "PercentPhaseFieldOfView": 100.0,
      "PercentSampling": 100.0,
      "PerformedProcedureStepStartTime": "161235.660000",
      "PhotometricInterpretation": "MONOCHROME2",
      "PixelBandwidth": 2290.0,
      "PixelRepresentation": 0,
      "PixelSpacing": [2.0, 2.0],
      "ProtocolName": "func_task-gamepad_run-2",
      "RepetitionTime": 1490.0,
      "Rows": 832,
      "SAR": 0.03930086529274,
      "SamplesPerPixel": 1,
      "ScanOptions": "FS",
      "ScanningSequence": "EP",
      "SequenceName": "epfid2d1_104",
      "SequenceVariant": [
        "SK",
        "SS"
],
      "SeriesDescription": "func_task-gamepad_run-2",
      "SeriesNumber": 13,
      "SeriesTime": "162407.690000",
      "SliceLocation": -34.044744707191,
      "SliceThickness": 2.0,
      "SmallestImagePixelValue": 0,
      "SoftwareVersions": "syngo MR E11",
      "SpacingBetweenSlices": 2.000000007717,
      "SpecificCharacterSet": "ISO_IR 100",
      "StudyID": "1",
      "StudyTime": "161235.582000",
      "TransmitCoilName": "Body",
      "VariableFlipAngleFlag": "N",
      "WindowCenterWidthExplanation": "Algo1",
      "dBdt": 0.0},
    "slices": {}
  },
  "time": {
    "samples": {
      "AcquisitionNumber": [1, 2, 3, 4, 5, 6, 7, 8, 9, 10, 11, 12, 13, 14, 15, 16, 17, 18, 19, 20, 21, 22, 23, 24, 25, 26, 27, 28, 29, 30, 31, 32, 33, 34, 35, 36, 37, 38, 39, 40, 41, 42, 43, 44, 45, 46, 47, 48, 49, 50, 51, 52, 53, 54, 55, 56, 57, 58, 59, 60, 61, 62, 63, 64, 65, 66, 67, 68, 69, 70, 71, 72, 73, 74, 75, 76, 77, 78, 79, 80, 81, 82, 83, 84, 85, 86, 87, 88, 89, 90, 91, 92, 93, 94, 95, 96, 97, 98, 99, 100, 101, 102, 103, 104, 105, 106, 107, 108, 109, 110, 111, 112, 113, 114, 115, 116, 117, 118, 119, 120, 121, 122, 123, 124, 125, 126, 127, 128, 129, 130, 131, 132, 133, 134, 135, 136, 137, 138, 139, 140, 141, 142, 143, 144, 145, 146, 147, 148, 149, 150, 151, 152, 153, 154, 155, 156, 157, 158, 159, 160, 161, 162, 163, 164, 165, 166, 167, 168, 169, 170, 171, 172, 173, 174, 175, 176, 177, 178, 179, 180, 181, 182, 183, 184, 185, 186, 187, 188, 189, 190, 191, 192, 193, 194, 195, 196, 197, 198, 199, 200, 201, 202, 203, 204, 205, 206, 207],
      "AcquisitionTime": ["162243.997500", "162245.487500", "162246.977500", "162248.467500", "162249.957500", "162251.447500", "162252.937500", "162254.427500", "162255.917500", "162257.407500", "162258.897500", "162300.387500", "162301.877500", "162303.367500", "162304.857500", "162306.347500", "162307.837500", "162309.327500", "162310.817500", "162312.307500", "162313.797500", "162315.287500", "162316.777500", "162318.267500", "162319.757500", "162321.247500", "162322.737500", "162324.227500", "162325.717500", "162327.207500", "162328.697500", "162330.187500", "162331.677500", "162333.167500", "162334.657500", "162336.147500", "162337.637500", "162339.127500", "162340.617500", "162342.107500", "162343.597500", "162345.087500", "162346.577500", "162348.067500", "162349.557500", "162351.047500", "162352.537500", "162354.027500", "162355.517500", "162357.007500", "162358.497500", "162359.987500", "162401.477500", "162402.967500", "162404.457500", "162405.947500", "162407.437500", "162408.927500", "162410.417500", "162411.907500", "162413.397500", "162414.887500", "162416.377500", "162417.867500", "162419.357500", "162420.847500", "162422.337500", "162423.827500", "162425.317500", "162426.807500", "162428.297500", "162429.787500", "162431.277500", "162432.767500", "162434.257500", "162435.747500", "162437.237500", "162438.727500", "162440.217500", "162441.707500", "162443.197500", "162444.687500", "162446.177500", "162447.667500", "162449.157500", "162450.647500", "162452.137500", "162453.627500", "162455.117500", "162456.607500", "162458.097500", "162459.587500", "162501.077500", "162502.567500", "162504.057500", "162505.547500", "162507.037500", "162508.527500", "162510.017500", "162511.507500", "162512.997500", "162514.487500", "162515.977500", "162517.467500", "162518.957500", "162520.447500", "162521.937500", "162523.427500", "162524.917500", "162526.407500", "162527.897500", "162529.387500", "162530.877500", "162532.367500", "162533.857500", "162535.347500", "162536.837500", "162538.327500", "162539.817500", "162541.307500", "162542.797500", "162544.287500", "162545.777500", "162547.267500", "162548.757500", "162550.247500", "162551.737500", "162553.227500", "162554.717500", "162556.207500", "162557.697500", "162559.187500", "162600.677500", "162602.167500", "162603.657500", "162605.147500", "162606.637500", "162608.127500", "162609.617500", "162611.107500", "162612.597500", "162614.087500", "162615.577500", "162617.067500", "162618.557500", "162620.047500", "162621.537500", "162623.027500", "162624.517500", "162626.007500", "162627.497500", "162628.987500", "162630.477500", "162631.967500", "162633.457500", "162634.947500", "162636.437500", "162637.927500", "162639.417500", "162640.907500", "162642.397500", "162643.887500", "162645.377500", "162646.867500", "162648.357500", "162649.847500", "162651.337500", "162652.827500", "162654.317500", "162655.807500", "162657.297500", "162658.787500", "162700.277500", "162701.767500", "162703.257500", "162704.747500", "162706.237500", "162707.727500", "162709.217500", "162710.707500", "162712.197500", "162713.687500", "162715.177500", "162716.667500", "162718.157500", "162719.647500", "162721.137500", "162722.627500", "162724.117500", "162725.607500", "162727.097500", "162728.587500", "162730.077500", "162731.567500", "162733.057500", "162734.547500", "162736.037500", "162737.527500", "162739.017500", "162740.507500", "162741.997500", "162743.487500", "162744.977500", "162746.467500", "162747.957500", "162749.447500", "162750.937500"],
      "ContentTime": ["162407.693000", "162407.697000", "162407.700000", "162407.704000", "162407.707000", "162407.710000", "162407.714000", "162407.717000", "162407.720000", "162407.723000", "162407.727000", "162407.730000", "162407.733000", "162407.736000", "162407.740000", "162407.743000", "162407.746000", "162407.749000", "162407.753000", "162407.756000", "162407.764000", "162407.767000", "162407.771000", "162407.774000", "162407.777000", "162407.781000", "162407.784000", "162407.787000", "162407.791000", "162407.794000", "162407.798000", "162427.662000", "162427.666000", "162427.669000", "162427.672000", "162427.676000", "162427.679000", "162427.702000", "162427.706000", "162427.709000", "162427.721000", "162427.724000", "162427.727000", "162427.730000", "162427.734000", "162427.737000", "162427.740000", "162427.744000", "162427.747000", "162427.750000", "162427.753000", "162447.662000", "162447.666000", "162447.669000", "162447.672000", "162447.676000", "162447.679000", "162447.682000", "162447.685000", "162447.704000", "162447.708000", "162447.717000", "162447.720000", "162447.723000", "162447.726000", "162447.730000", "162447.733000", "162447.736000", "162447.739000", "162447.743000", "162447.746000", "162507.662000", "162507.666000", "162507.669000", "162507.672000", "162507.676000", "162507.679000", "162507.682000", "162507.685000", "162507.689000", "162507.692000", "162507.696000", "162507.700000", "162507.704000", "162507.707000", "162507.711000", "162507.714000", "162507.717000", "162507.721000", "162507.724000", "162507.727000", "162547.662000", "162547.666000", "162547.669000", "162547.673000", "162547.676000", "162547.679000", "162547.683000", "162547.686000", "162547.689000", "162547.692000", "162547.696000", "162547.699000", "162547.702000", "162547.706000", "162547.711000", "162547.715000", "162547.718000", "162547.722000", "162547.725000", "162547.728000", "162547.732000", "162547.735000", "162547.738000", "162547.742000", "162547.745000", "162547.748000", "162547.752000", "162547.755000", "162547.758000", "162547.761000", "162547.764000", "162627.662000", "162627.666000", "162627.669000", "162627.672000", "162627.676000", "162627.679000", "162627.682000", "162627.686000", "162627.689000", "162627.692000", "162627.695000", "162627.699000", "162627.702000", "162627.705000", "162627.708000", "162627.711000", "162627.715000", "162627.718000", "162627.721000", "162627.725000", "162627.728000", "162627.731000", "162627.735000", "162627.738000", "162627.741000", "162627.744000", "162627.748000", "162707.662000", "162707.666000", "162707.669000", "162707.672000", "162707.676000", "162707.679000", "162707.682000", "162707.686000", "162707.689000", "162707.692000", "162707.695000", "162707.710000", "162707.714000", "162707.717000", "162707.720000", "162707.723000", "162707.727000", "162707.730000", "162707.733000", "162707.737000", "162707.740000", "162707.752000", "162707.755000", "162707.758000", "162707.761000", "162707.765000", "162707.768000", "162747.662000", "162747.666000", "162747.669000", "162747.673000", "162747.676000", "162747.679000", "162747.682000", "162747.686000", "162747.689000", "162747.692000", "162747.696000", "162747.699000", "162747.702000", "162747.706000", "162747.709000", "162747.712000", "162747.715000", "162747.719000", "162747.722000", "162747.725000", "162747.729000", "162747.732000", "162747.735000", "162747.738000", "162747.742000", "162747.745000", "162747.748000", "162752.926000", "162752.930000", "162752.933000", "162752.937000"],
      "InstanceCreationTime": ["162407.693000", "162407.697000", "162407.700000", "162407.704000", "162407.707000", "162407.710000", "162407.714000", "162407.717000", "162407.720000", "162407.723000", "162407.727000", "162407.730000", "162407.733000", "162407.736000", "162407.740000", "162407.743000", "162407.746000", "162407.749000", "162407.753000", "162407.756000", "162407.764000", "162407.767000", "162407.771000", "162407.774000", "162407.777000", "162407.781000", "162407.784000", "162407.787000", "162407.791000", "162407.794000", "162407.798000", "162427.662000", "162427.666000", "162427.669000", "162427.672000", "162427.676000", "162427.679000", "162427.702000", "162427.706000", "162427.709000", "162427.721000", "162427.724000", "162427.727000", "162427.730000", "162427.734000", "162427.737000", "162427.740000", "162427.744000", "162427.747000", "162427.750000", "162427.753000", "162447.662000", "162447.666000", "162447.669000", "162447.672000", "162447.676000", "162447.679000", "162447.682000", "162447.685000", "162447.704000", "162447.708000", "162447.717000", "162447.720000", "162447.723000", "162447.726000", "162447.730000", "162447.733000", "162447.736000", "162447.739000", "162447.743000", "162447.746000", "162507.662000", "162507.666000", "162507.669000", "162507.672000", "162507.676000", "162507.679000", "162507.682000", "162507.685000", "162507.689000", "162507.692000", "162507.696000", "162507.700000", "162507.704000", "162507.707000", "162507.711000", "162507.714000", "162507.717000", "162507.721000", "162507.724000", "162507.727000", "162547.662000", "162547.666000", "162547.669000", "162547.673000", "162547.676000", "162547.679000", "162547.683000", "162547.686000", "162547.689000", "162547.692000", "162547.696000", "162547.699000", "162547.702000", "162547.706000", "162547.711000", "162547.715000", "162547.718000", "162547.722000", "162547.725000", "162547.728000", "162547.732000", "162547.735000", "162547.738000", "162547.742000", "162547.745000", "162547.748000", "162547.752000", "162547.755000", "162547.758000", "162547.761000", "162547.764000", "162627.662000", "162627.666000", "162627.669000", "162627.672000", "162627.676000", "162627.679000", "162627.682000", "162627.686000", "162627.689000", "162627.692000", "162627.695000", "162627.699000", "162627.702000", "162627.705000", "162627.708000", "162627.711000", "162627.715000", "162627.718000", "162627.721000", "162627.725000", "162627.728000", "162627.731000", "162627.735000", "162627.738000", "162627.741000", "162627.744000", "162627.748000", "162707.662000", "162707.666000", "162707.669000", "162707.672000", "162707.676000", "162707.679000", "162707.682000", "162707.686000", "162707.689000", "162707.692000", "162707.695000", "162707.710000", "162707.714000", "162707.717000", "162707.720000", "162707.723000", "162707.727000", "162707.730000", "162707.733000", "162707.737000", "162707.740000", "162707.752000", "162707.755000", "162707.758000", "162707.761000", "162707.765000", "162707.768000", "162747.662000", "162747.666000", "162747.669000", "162747.673000", "162747.676000", "162747.679000", "162747.682000", "162747.686000", "162747.689000", "162747.692000", "162747.696000", "162747.699000", "162747.702000", "162747.706000", "162747.709000", "162747.712000", "162747.715000", "162747.719000", "162747.722000", "162747.725000", "162747.729000", "162747.732000", "162747.735000", "162747.738000", "162747.742000", "162747.745000", "162747.748000", "162752.926000", "162752.930000", "162752.933000", "162752.937000"],
      "InstanceNumber": [1, 2, 3, 4, 5, 6, 7, 8, 9, 10, 11, 12, 13, 14, 15, 16, 17, 18, 19, 20, 21, 22, 23, 24, 25, 26, 27, 28, 29, 30, 31, 32, 33, 34, 35, 36, 37, 38, 39, 40, 41, 42, 43, 44, 45, 46, 47, 48, 49, 50, 51, 52, 53, 54, 55, 56, 57, 58, 59, 60, 61, 62, 63, 64, 65, 66, 67, 68, 69, 70, 71, 72, 73, 74, 75, 76, 77, 78, 79, 80, 81, 82, 83, 84, 85, 86, 87, 88, 89, 90, 91, 92, 93, 94, 95, 96, 97, 98, 99, 100, 101, 102, 103, 104, 105, 106, 107, 108, 109, 110, 111, 112, 113, 114, 115, 116, 117, 118, 119, 120, 121, 122, 123, 124, 125, 126, 127, 128, 129, 130, 131, 132, 133, 134, 135, 136, 137, 138, 139, 140, 141, 142, 143, 144, 145, 146, 147, 148, 149, 150, 151, 152, 153, 154, 155, 156, 157, 158, 159, 160, 161, 162, 163, 164, 165, 166, 167, 168, 169, 170, 171, 172, 173, 174, 175, 176, 177, 178, 179, 180, 181, 182, 183, 184, 185, 186, 187, 188, 189, 190, 191, 192, 193, 194, 195, 196, 197, 198, 199, 200, 201, 202, 203, 204, 205, 206, 207],
      "LargestImagePixelValue": [40940, 40076, 39257, 38311, 38303, 38605, 39472, 40927, 39727, 38588, 37763, 37861, 37244, 37410, 38784, 37861, 38012, 37366, 37592, 37747, 37877, 36979, 37927, 37434, 37216, 37291, 37507, 37536, 37915, 37529, 37628, 37821, 37873, 37522, 37505, 37860, 37883, 37768, 38102, 38185, 37602, 38022, 37630, 37782, 37114, 38142, 37343, 37244, 37430, 38409, 37742, 37901, 37942, 38140, 37348, 37564, 37361, 37834, 37416, 37455, 38075, 37302, 37867, 38098, 38589, 38871, 38222, 37913, 38037, 38359, 37983, 38302, 38152, 38384, 38031, 38257, 38034, 38161, 38042, 37895, 37909, 37502, 38455, 38093, 37850, 38296, 38926, 38099, 38725, 38001, 37839, 37882, 37847, 38303, 38737, 37887, 38821, 38446, 38837, 38368, 37983, 38181, 37693, 38235, 38059, 38001, 38759, 37956, 38479, 38500, 38366, 37874, 37999, 38218, 38252, 38838, 38680, 38269, 37956, 38525, 37880, 38108, 38016, 38369, 38300, 38549, 38606, 38620, 38749, 38788, 38816, 38528, 38165, 37831, 38369, 38445, 38916, 38643, 38224, 37967, 38291, 38037, 37741, 38073, 38358, 38566, 38489, 38358, 37998, 38480, 37996, 38624, 38251, 38212, 38361, 38567, 38154, 38081, 39267, 38549, 38685, 38523, 38982, 38710, 38620, 38626, 38616, 38241, 37776, 38062, 38129, 37947, 38451, 38563, 38240, 38152, 38773, 38842, 38910, 38697, 38179, 39364, 38889, 38683, 38926, 38321, 39053, 39367, 39461, 39107, 38293, 38073, 38207, 38325, 39448, 38397, 38654, 39042, 38979, 39018, 38602, 38402, 38282, 37787, 37783, 37780, 37861],
      "WindowCenter": [10234.0, 10176.0, 10128.0, 10123.0, 10122.0, 10122.0, 10158.0, 10203.0, 10159.0, 10145.0, 10112.0, 10095.0, 10073.0, 10068.0, 10097.0, 10124.0, 10156.0, 10128.0, 10120.0, 10137.0, 10156.0, 10153.0, 10179.0, 10193.0, 10181.0, 10172.0, 10162.0, 10162.0, 10155.0, 10140.0, 10136.0, 10126.0, 10142.0, 10159.0, 10169.0, 10161.0, 10144.0, 10142.0, 10147.0, 10163.0, 10177.0, 10183.0, 10165.0, 10149.0, 10135.0, 10144.0, 10138.0, 10151.0, 10164.0, 10170.0, 10157.0, 10134.0, 10113.0, 10104.0, 10106.0, 10115.0, 10109.0, 10108.0, 10113.0, 10122.0, 10137.0, 10154.0, 10160.0, 10148.0, 10143.0, 10139.0, 10146.0, 10155.0, 10163.0, 10155.0, 10148.0, 10145.0, 10146.0, 10160.0, 10166.0, 10179.0, 10158.0, 10133.0, 10130.0, 10130.0, 10147.0, 10159.0, 10169.0, 10147.0, 10132.0, 10128.0, 10139.0, 10128.0, 10126.0, 10126.0, 10123.0, 10134.0, 10139.0, 10137.0, 10142.0, 10131.0, 10125.0, 10119.0, 10132.0, 10140.0, 10129.0, 10119.0, 10118.0, 10132.0, 10153.0, 10154.0, 10152.0, 10138.0, 10144.0, 10152.0, 10169.0, 10172.0, 10180.0, 10181.0, 10194.0, 10188.0, 10180.0, 10167.0, 10147.0, 10143.0, 10131.0, 10146.0, 10160.0, 10177.0, 10178.0, 10164.0, 10159.0, 10168.0, 10182.0, 10217.0, 10207.0, 10169.0, 10151.0, 10150.0, 10153.0, 10123.0, 10109.0, 10109.0, 10091.0, 10088.0, 10101.0, 10129.0, 10140.0, 10140.0, 10147.0, 10155.0, 10157.0, 10165.0, 10161.0, 10173.0, 10174.0, 10194.0, 10199.0, 10207.0, 10199.0, 10191.0, 10177.0, 10180.0, 10229.0, 10239.0, 10240.0, 10206.0, 10177.0, 10141.0, 10124.0, 10124.0, 10131.0, 10140.0, 10148.0, 10151.0, 10157.0, 10152.0, 10150.0, 10138.0, 10129.0, 10123.0, 10130.0, 10129.0, 10127.0, 10129.0, 10141.0, 10182.0, 10203.0, 10191.0, 10195.0, 10203.0, 10214.0, 10228.0, 10217.0, 10189.0, 10159.0, 10134.0, 10130.0, 10136.0, 10170.0, 10178.0, 10179.0, 10171.0, 10147.0, 10114.0, 10096.0, 10087.0, 10094.0, 10107.0, 10117.0, 10116.0, 10109.0],
      "WindowWidth": [22046.0, 21880.0, 21749.0, 21723.0, 21713.0, 21712.0, 21797.0, 21903.0, 21793.0, 21752.0, 21681.0, 21639.0, 21590.0, 21576.0, 21636.0, 21702.0, 21776.0, 21718.0, 21697.0, 21733.0, 21777.0, 21769.0, 21824.0, 21858.0, 21834.0, 21814.0, 21790.0, 21786.0, 21774.0, 21743.0, 21735.0, 21713.0, 21747.0, 21787.0, 21811.0, 21795.0, 21753.0, 21748.0, 21760.0, 21796.0, 21828.0, 21844.0, 21802.0, 21765.0, 21735.0, 21749.0, 21740.0, 21772.0, 21799.0, 21810.0, 21785.0, 21732.0, 21684.0, 21664.0, 21669.0, 21692.0, 21680.0, 21676.0, 21686.0, 21707.0, 21741.0, 21781.0, 21795.0, 21765.0, 21749.0, 21739.0, 21758.0, 21782.0, 21796.0, 21781.0, 21764.0, 21758.0, 21761.0, 21790.0, 21808.0, 21833.0, 21789.0, 21731.0, 21725.0, 21725.0, 21765.0, 21796.0, 21810.0, 21763.0, 21730.0, 21719.0, 21740.0, 21721.0, 21714.0, 21715.0, 21712.0, 21741.0, 21753.0, 21740.0, 21750.0, 21731.0, 21716.0, 21703.0, 21730.0, 21747.0, 21729.0, 21703.0, 21701.0, 21733.0, 21783.0, 21786.0, 21782.0, 21752.0, 21765.0, 21784.0, 21820.0, 21830.0, 21846.0, 21850.0, 21878.0, 21863.0, 21844.0, 21818.0, 21772.0, 21761.0, 21737.0, 21769.0, 21800.0, 21838.0, 21840.0, 21812.0, 21800.0, 21822.0, 21853.0, 21934.0, 21909.0, 21827.0, 21782.0, 21777.0, 21781.0, 21711.0, 21676.0, 21679.0, 21645.0, 21637.0, 21667.0, 21730.0, 21757.0, 21755.0, 21771.0, 21785.0, 21792.0, 21809.0, 21805.0, 21828.0, 21832.0, 21873.0, 21887.0, 21905.0, 21886.0, 21870.0, 21840.0, 21845.0, 21949.0, 21982.0, 21982.0, 21910.0, 21840.0, 21761.0, 21722.0, 21722.0, 21735.0, 21754.0, 21773.0, 21784.0, 21797.0, 21787.0, 21781.0, 21752.0, 21730.0, 21719.0, 21734.0, 21729.0, 21725.0, 21732.0, 21761.0, 21850.0, 21899.0, 21875.0, 21882.0, 21901.0, 21919.0, 21950.0, 21928.0, 21865.0, 21798.0, 21746.0, 21738.0, 21751.0, 21821.0, 21842.0, 21844.0, 21829.0, 21779.0, 21707.0, 21663.0, 21642.0, 21658.0, 21689.0, 21713.0, 21711.0, 21695.0]
    },
    "slices": {}
  }
}