{
  "AcquisitionMatrixPE": 104,
  "AcquisitionNumber": 1,
  "AcquisitionTime": "16:16:9.050000",
  "BandwidthPerPixelPhaseEncode": 17.17,
  "BaseResolution": 104,
  "BodyPartExamined": "BRAIN",
  "CoilCombinationMethod": "Sum of Squares",
  "ConsistencyInfo": "N4_VE11C_LATEST_20160120",
  "ConversionSoftware": "dcm2niix",
  "ConversionSoftwareVersion": "v1.0.20211006",
  "DerivedVendorReportedEchoSpacing": 0.000560011,
  "DeviceSerialNumber": "167006",
  "DwellTime": 2.1e-06,
  "EchoTime": 0.037,
  "EchoTime1": 0.037,
  "EchoTime2": 0.001,
  "EchoTrainLength": 104,
  "EffectiveEchoSpacing": 0.000560011,
  "FlipAngle": 52,
  "HeudiconvVersion": "0.10.0",
  "ImageComments": "Unaliased MB4/PE3/LB",
  "ImageOrientationPatientDICOM": [0.9985, -0.0502071, 0.0218616, 0.0546011, 0.943229, -0.327625],
  "ImageOrientationText": "Tra>Cor(-19.2)>Sag(0.2)",
  "ImageType": [
    "ORIGINAL",
    "PRIMARY",
    "P",
    "MB",
    "ND",
    "MOSAIC",
    "PHASE"
],
  "ImagingFrequency": 123.259,
  "InPlanePhaseEncodingDirectionDICOM": "COL",
  "InstitutionAddress": "Chemin Queen-Mary 4565,Montreal,District,CA,H3W 1W5",
  "InstitutionName": "IUGM",
  "InstitutionalDepartmentName": "Department",
  "MRAcquisitionType": "2D",
  "MagneticFieldStrength": 3,
  "Manufacturer": "Siemens",
  "ManufacturersModelName": "Prisma_fit",
  "MatrixCoilMode": "SENSE",
  "Modality": "MR",
  "MultibandAccelerationFactor": 4,
  "PartialFourier": 1,
  "PatientPosition": "HFS",
  "PercentPhaseFOV": 100,
  "PercentSampling": 100,
  "PhaseEncodingDirection": "j",
  "PhaseEncodingSteps": 104,
  "PhaseResolution": 1,
  "PixelBandwidth": 2290,
  "ProcedureStepDescription": "games^gamepad",
  "ProtocolName": "func_task-gamepad_run-1",
  "PulseSequenceDetails": "%CustomerSeq%\\cmrr_mbep2d_bold",
  "ReceiveCoilActiveElements": "HC1-7;NC1,2",
  "ReceiveCoilName": "HeadNeck_64",
  "ReconMatrixPE": 104,
  "RepetitionTime": 1.49,
  "SAR": 0.0393009,
  "ScanOptions": "FS",
  "ScanningSequence": "EP",
  "SequenceName": "epfid2d1_104",
  "SequenceVariant": "SK\\SS",
  "SeriesDescription": "func_task-gamepad_run-1",
  "SeriesNumber": 11,
  "ShimSetting": [635, -7263, -8815, 568, 22, -219, -60, -31],
  "SliceThickness": 2,
  "SliceTiming": [0, 0.785, 0.0975, 0.8825, 0.195, 0.98, 0.295, 1.0775, 0.3925, 1.175, 0.49, 1.275, 0.5875, 1.3725, 0.685, 0, 0.785, 0.0975, 0.8825, 0.195, 0.98, 0.295, 1.0775, 0.3925, 1.175, 0.49, 1.275, 0.5875, 1.3725, 0.685, 0, 0.785, 0.0975, 0.8825, 0.195, 0.98, 0.295, 1.0775, 0.3925, 1.175, 0.49, 1.275, 0.5875, 1.3725, 0.685, 0, 0.785, 0.0975, 0.8825, 0.195, 0.98, 0.295, 1.0775, 0.3925, 1.175, 0.49, 1.275, 0.5875, 1.3725, 0.685],
  "SoftwareVersions": "syngo MR E11",
  "SpacingBetweenSlices": 2,
  "StationName": "MRC35049",
  "TaskName": "gamepad",
  "TotalReadoutTime": 0.0576811,
  "TxRefAmp": 242.938,
  "WipMemBlock": "70c52a1f-fc5b-42b5-b6b2-1a90afc1794f||Sequence: R016 ve11c/master r/e634e98; Dec 19 2017 11:00:25 by eja",
  "dcmmeta_affine": [
    [-1.9969990253448486, 0.10920227319002151, 0.008342794142663479, 101.24549102783203],
    [0.10041423887014389, 1.8864576816558838, -0.656653881072998, -71.40653991699219],
    [0.0437232106924057, 0.6552497148513794, 1.8891098499298096, -61.31117248535156],
    [0.0, 0.0, 0.0, 1.0]
],
  "dcmmeta_reorient_transform": [
    [0.0, -1.0, 0.0, 103.0],
    [1.0, 0.0, 0.0, 0.0],
    [0.0, 0.0, 1.0, 0.0],
    [0.0, 0.0, 0.0, 1.0]
],
  "dcmmeta_shape": [104, 104, 60, 207],
  "dcmmeta_slice_dim": 2,
  "dcmmeta_version": 0.6,
  "global": {
    "const": {
      "AcquisitionMatrix": [104, 0, 0, 104],
      "AngioFlag": "N",
      "BitsAllocated": 16,
      "BitsStored": 16,
      "BodyPartExamined": "BRAIN",
      "Columns": 832,
      "EchoNumbers": 1,
      "EchoTime": 37.0,
      "EchoTrainLength": 104,
      "FlipAngle": 52.0,
      "HighBit": 15,
      "ImageOrientationPatient": [0.99849953194175, -0.0502071199408, 0.02186160605622, 0.054601136963, 0.94322885331422, -0.3276248557694],
      "ImagePositionPatient": [-879.15061271848, -773.01842756462, 228.77519458348],
      "ImageType": [
        "ORIGINAL",
        "PRIMARY",
        "P",
        "MB",
        "ND",
        "MOSAIC"
],
      "ImagedNucleus": "1H",
      "ImagingFrequency": 123.259062,
      "InPlanePhaseEncodingDirection": "COL",
      "LargestImagePixelValue": 4095,
      "MRAcquisitionType": "2D",
      "MagneticFieldStrength": 3.0,
      "Manufacturer": "SIEMENS",
      "ManufacturerModelName": "Prisma_fit",
      "Modality": "MR",
      "NumberOfAverages": 1.0,
      "NumberOfPhaseEncodingSteps": 104,
      "PercentPhaseFieldOfView": 100.0,
      "PercentSampling": 100.0,
      "PerformedProcedureStepStartTime": "161235.660000",
      "PhotometricInterpretation": "MONOCHROME2",
      "PixelBandwidth": 2290.0,
      "PixelRepresentation": 0,
      "PixelSpacing": [2.0, 2.0],
      "ProtocolName": "func_task-gamepad_run-1",
      "RepetitionTime": 1490.0,
      "RescaleIntercept": -4096.0,
      "RescaleSlope": 2.0,
      "RescaleType": "US",
      "Rows": 832,
      "SAR": 0.03930086529274,
      "SamplesPerPixel": 1,
      "ScanOptions": "FS",
      "ScanningSequence": "EP",
      "SequenceName": "epfid2d1_104",
      "SequenceVariant": [
        "SK",
        "SS"
],
      "SeriesDescription": "func_task-gamepad_run-1",
      "SeriesNumber": 11,
      "SeriesTime": "161721.805000",
      "SliceLocation": -34.044744707191,
      "SliceThickness": 2.0,
      "SmallestImagePixelValue": 0,
      "SoftwareVersions": "syngo MR E11",
      "SpacingBetweenSlices": 2.000000007717,
      "SpecificCharacterSet": "ISO_IR 100",
      "StudyID": "1",
      "StudyTime": "161235.582000",
      "TransmitCoilName": "Body",
      "VariableFlipAngleFlag": "N",
      "WindowCenterWidthExplanation": "Algo1",
      "dBdt": 0.0},
    "slices": {}
  },
  "time": {
    "samples": {
      "AcquisitionNumber": [1, 2, 3, 4, 5, 6, 7, 8, 9, 10, 11, 12, 13, 14, 15, 16, 17, 18, 19, 20, 21, 22, 23, 24, 25, 26, 27, 28, 29, 30, 31, 32, 33, 34, 35, 36, 37, 38, 39, 40, 41, 42, 43, 44, 45, 46, 47, 48, 49, 50, 51, 52, 53, 54, 55, 56, 57, 58, 59, 60, 61, 62, 63, 64, 65, 66, 67, 68, 69, 70, 71, 72, 73, 74, 75, 76, 77, 78, 79, 80, 81, 82, 83, 84, 85, 86, 87, 88, 89, 90, 91, 92, 93, 94, 95, 96, 97, 98, 99, 100, 101, 102, 103, 104, 105, 106, 107, 108, 109, 110, 111, 112, 113, 114, 115, 116, 117, 118, 119, 120, 121, 122, 123, 124, 125, 126, 127, 128, 129, 130, 131, 132, 133, 134, 135, 136, 137, 138, 139, 140, 141, 142, 143, 144, 145, 146, 147, 148, 149, 150, 151, 152, 153, 154, 155, 156, 157, 158, 159, 160, 161, 162, 163, 164, 165, 166, 167, 168, 169, 170, 171, 172, 173, 174, 175, 176, 177, 178, 179, 180, 181, 182, 183, 184, 185, 186, 187, 188, 189, 190, 191, 192, 193, 194, 195, 196, 197, 198, 199, 200, 201, 202, 203, 204, 205, 206, 207],
      "AcquisitionTime": ["161609.050000", "161610.540000", "161612.030000", "161613.520000", "161615.010000", "161616.500000", "161617.990000", "161619.480000", "161620.970000", "161622.460000", "161623.950000", "161625.440000", "161626.930000", "161628.420000", "161629.910000", "161631.400000", "161632.890000", "161634.380000", "161635.870000", "161637.360000", "161638.850000", "161640.340000", "161641.830000", "161643.320000", "161644.810000", "161646.300000", "161647.790000", "161649.280000", "161650.770000", "161652.260000", "161653.750000", "161655.240000", "161656.730000", "161658.220000", "161659.710000", "161701.200000", "161702.690000", "161704.180000", "161705.670000", "161707.160000", "161708.650000", "161710.140000", "161711.630000", "161713.120000", "161714.610000", "161716.100000", "161717.590000", "161719.080000", "161720.570000", "161722.060000", "161723.550000", "161725.040000", "161726.530000", "161728.020000", "161729.510000", "161731.000000", "161732.490000", "161733.980000", "161735.470000", "161736.960000", "161738.450000", "161739.940000", "161741.430000", "161742.920000", "161744.410000", "161745.900000", "161747.390000", "161748.880000", "161750.370000", "161751.860000", "161753.350000", "161754.840000", "161756.330000", "161757.820000", "161759.310000", "161800.800000", "161802.290000", "161803.780000", "161805.270000", "161806.760000", "161808.250000", "161809.740000", "161811.230000", "161812.720000", "161814.210000", "161815.700000", "161817.190000", "161818.680000", "161820.170000", "161821.660000", "161823.150000", "161824.640000", "161826.130000", "161827.620000", "161829.110000", "161830.600000", "161832.090000", "161833.580000", "161835.070000", "161836.560000", "161838.050000", "161839.540000", "161841.030000", "161842.520000", "161844.010000", "161845.500000", "161846.990000", "161848.480000", "161849.970000", "161851.460000", "161852.950000", "161854.440000", "161855.930000", "161857.420000", "161858.910000", "161900.400000", "161901.890000", "161903.380000", "161904.870000", "161906.360000", "161907.850000", "161909.340000", "161910.830000", "161912.320000", "161913.810000", "161915.300000", "161916.790000", "161918.280000", "161919.770000", "161921.260000", "161922.750000", "161924.240000", "161925.730000", "161927.220000", "161928.710000", "161930.200000", "161931.690000", "161933.180000", "161934.670000", "161936.160000", "161937.650000", "161939.140000", "161940.630000", "161942.120000", "161943.610000", "161945.100000", "161946.590000", "161948.080000", "161949.570000", "161951.060000", "161952.550000", "161954.040000", "161955.530000", "161957.020000", "161958.510000", "162000.000000", "162001.490000", "162002.980000", "162004.470000", "162005.960000", "162007.450000", "162008.940000", "162010.430000", "162011.920000", "162013.410000", "162014.900000", "162016.390000", "162017.880000", "162019.370000", "162020.860000", "162022.350000", "162023.840000", "162025.330000", "162026.820000", "162028.310000", "162029.800000", "162031.290000", "162032.780000", "162034.270000", "162035.760000", "162037.250000", "162038.740000", "162040.230000", "162041.720000", "162043.210000", "162044.700000", "162046.190000", "162047.680000", "162049.170000", "162050.660000", "162052.150000", "162053.640000", "162055.130000", "162056.620000", "162058.110000", "162059.600000", "162101.090000", "162102.580000", "162104.070000", "162105.560000", "162107.050000", "162108.540000", "162110.030000", "162111.520000", "162113.010000", "162114.500000", "162115.990000"],
      "ContentTime": ["161721.807000", "161721.819000", "161721.821000", "161721.824000", "161721.826000", "161721.829000", "161721.832000", "161721.834000", "161721.836000", "161721.839000", "161721.842000", "161721.844000", "161721.847000", "161721.849000", "161721.852000", "161721.854000", "161721.857000", "161721.859000", "161721.862000", "161741.781000", "161741.784000", "161741.786000", "161741.789000", "161741.791000", "161741.794000", "161741.796000", "161741.798000", "161741.801000", "161741.803000", "161741.806000", "161741.808000", "161741.811000", "161741.813000", "161741.816000", "161741.818000", "161741.821000", "161741.823000", "161741.825000", "161741.828000", "161741.830000", "161801.815000", "161801.818000", "161801.820000", "161801.823000", "161801.825000", "161801.828000", "161801.830000", "161801.833000", "161801.835000", "161801.838000", "161801.840000", "161801.843000", "161801.845000", "161801.847000", "161801.850000", "161801.852000", "161801.855000", "161801.857000", "161801.860000", "161801.862000", "161821.780000", "161821.783000", "161821.785000", "161821.788000", "161821.790000", "161821.793000", "161821.795000", "161821.797000", "161821.800000", "161821.802000", "161821.805000", "161821.808000", "161821.810000", "161821.813000", "161821.815000", "161821.818000", "161821.820000", "161821.823000", "161821.825000", "161821.827000", "161841.790000", "161841.793000", "161841.796000", "161841.798000", "161841.801000", "161841.803000", "161841.805000", "161841.808000", "161841.810000", "161841.813000", "161841.815000", "161841.818000", "161841.820000", "161841.823000", "161841.825000", "161841.828000", "161841.830000", "161841.833000", "161841.835000", "161841.838000", "161921.815000", "161921.818000", "161921.821000", "161921.823000", "161921.825000", "161921.828000", "161921.830000", "161921.833000", "161921.835000", "161921.838000", "161921.840000", "161921.843000", "161921.845000", "161921.848000", "161921.850000", "161921.853000", "161921.855000", "161921.858000", "161921.860000", "161921.863000", "161921.865000", "161921.868000", "161921.870000", "161921.873000", "161921.875000", "161921.878000", "161921.880000", "161921.883000", "161921.885000", "162001.811000", "162001.814000", "162001.816000", "162001.819000", "162001.821000", "162001.824000", "162001.826000", "162001.829000", "162001.831000", "162001.834000", "162001.836000", "162001.838000", "162001.841000", "162001.843000", "162001.846000", "162001.848000", "162001.851000", "162001.853000", "162001.856000", "162001.858000", "162001.861000", "162001.863000", "162001.866000", "162001.868000", "162001.871000", "162001.873000", "162041.814000", "162041.817000", "162041.819000", "162041.822000", "162041.824000", "162041.827000", "162041.829000", "162041.832000", "162041.834000", "162041.837000", "162041.839000", "162041.841000", "162041.844000", "162041.846000", "162041.849000", "162041.851000", "162041.854000", "162041.856000", "162041.859000", "162041.862000", "162041.864000", "162041.867000", "162041.869000", "162041.871000", "162041.874000", "162041.876000", "162041.879000", "162117.897000", "162117.900000", "162117.903000", "162117.905000", "162117.908000", "162117.910000", "162117.913000", "162117.915000", "162117.918000", "162117.920000", "162117.923000", "162117.925000", "162117.928000", "162117.930000", "162117.933000", "162117.935000", "162117.938000", "162117.940000", "162117.943000", "162117.945000", "162117.948000", "162117.951000", "162117.953000", "162117.956000", "162117.958000"],
      "InstanceCreationTime": ["161721.807000", "161721.819000", "161721.821000", "161721.824000", "161721.826000", "161721.829000", "161721.832000", "161721.834000", "161721.836000", "161721.839000", "161721.842000", "161721.844000", "161721.847000", "161721.849000", "161721.852000", "161721.854000", "161721.857000", "161721.859000", "161721.862000", "161741.781000", "161741.784000", "161741.786000", "161741.789000", "161741.791000", "161741.794000", "161741.796000", "161741.798000", "161741.801000", "161741.803000", "161741.806000", "161741.808000", "161741.811000", "161741.813000", "161741.816000", "161741.818000", "161741.821000", "161741.823000", "161741.825000", "161741.828000", "161741.830000", "161801.815000", "161801.818000", "161801.820000", "161801.823000", "161801.825000", "161801.828000", "161801.830000", "161801.833000", "161801.835000", "161801.838000", "161801.840000", "161801.843000", "161801.845000", "161801.847000", "161801.850000", "161801.852000", "161801.855000", "161801.857000", "161801.860000", "161801.862000", "161821.780000", "161821.783000", "161821.785000", "161821.788000", "161821.790000", "161821.793000", "161821.795000", "161821.797000", "161821.800000", "161821.802000", "161821.805000", "161821.808000", "161821.810000", "161821.813000", "161821.815000", "161821.818000", "161821.820000", "161821.823000", "161821.825000", "161821.827000", "161841.790000", "161841.793000", "161841.796000", "161841.798000", "161841.801000", "161841.803000", "161841.805000", "161841.808000", "161841.810000", "161841.813000", "161841.815000", "161841.818000", "161841.820000", "161841.823000", "161841.825000", "161841.828000", "161841.830000", "161841.833000", "161841.835000", "161841.838000", "161921.815000", "161921.818000", "161921.821000", "161921.823000", "161921.825000", "161921.828000", "161921.830000", "161921.833000", "161921.835000", "161921.838000", "161921.840000", "161921.843000", "161921.845000", "161921.848000", "161921.850000", "161921.853000", "161921.855000", "161921.858000", "161921.860000", "161921.863000", "161921.865000", "161921.868000", "161921.870000", "161921.873000", "161921.875000", "161921.878000", "161921.880000", "161921.883000", "161921.885000", "162001.811000", "162001.814000", "162001.816000", "162001.819000", "162001.821000", "162001.824000", "162001.826000", "162001.829000", "162001.831000", "162001.834000", "162001.836000", "162001.838000", "162001.841000", "162001.843000", "162001.846000", "162001.848000", "162001.851000", "162001.853000", "162001.856000", "162001.858000", "162001.861000", "162001.863000", "162001.866000", "162001.868000", "162001.871000", "162001.873000", "162041.814000", "162041.817000", "162041.819000", "162041.822000", "162041.824000", "162041.827000", "162041.829000", "162041.832000", "162041.834000", "162041.837000", "162041.839000", "162041.841000", "162041.844000", "162041.846000", "162041.849000", "162041.851000", "162041.854000", "162041.856000", "162041.859000", "162041.862000", "162041.864000", "162041.867000", "162041.869000", "162041.871000", "162041.874000", "162041.876000", "162041.879000", "162117.897000", "162117.900000", "162117.903000", "162117.905000", "162117.908000", "162117.910000", "162117.913000", "162117.915000", "162117.918000", "162117.920000", "162117.923000", "162117.925000", "162117.928000", "162117.930000", "162117.933000", "162117.935000", "162117.938000", "162117.940000", "162117.943000", "162117.945000", "162117.948000", "162117.951000", "162117.953000", "162117.956000", "162117.958000"],
      "InstanceNumber": [1, 2, 3, 4, 5, 6, 7, 8, 9, 10, 11, 12, 13, 14, 15, 16, 17, 18, 19, 20, 21, 22, 23, 24, 25, 26, 27, 28, 29, 30, 31, 32, 33, 34, 35, 36, 37, 38, 39, 40, 41, 42, 43, 44, 45, 46, 47, 48, 49, 50, 51, 52, 53, 54, 55, 56, 57, 58, 59, 60, 61, 62, 63, 64, 65, 66, 67, 68, 69, 70, 71, 72, 73, 74, 75, 76, 77, 78, 79, 80, 81, 82, 83, 84, 85, 86, 87, 88, 89, 90, 91, 92, 93, 94, 95, 96, 97, 98, 99, 100, 101, 102, 103, 104, 105, 106, 107, 108, 109, 110, 111, 112, 113, 114, 115, 116, 117, 118, 119, 120, 121, 122, 123, 124, 125, 126, 127, 128, 129, 130, 131, 132, 133, 134, 135, 136, 137, 138, 139, 140, 141, 142, 143, 144, 145, 146, 147, 148, 149, 150, 151, 152, 153, 154, 155, 156, 157, 158, 159, 160, 161, 162, 163, 164, 165, 166, 167, 168, 169, 170, 171, 172, 173, 174, 175, 176, 177, 178, 179, 180, 181, 182, 183, 184, 185, 186, 187, 188, 189, 190, 191, 192, 193, 194, 195, 196, 197, 198, 199, 200, 201, 202, 203, 204, 205, 206, 207],
      "WindowCenter": [4824.0, 4826.0, 4824.0, 4822.0, 4822.0, 4818.0, 4820.0, 4820.0, 4820.0, 4820.0, 4820.0, 4820.0, 4822.0, 4820.0, 4848.0, 4830.0, 4826.0, 4812.0, 4816.0, 4820.0, 4820.0, 4820.0, 4824.0, 4820.0, 4822.0, 4820.0, 4820.0, 4818.0, 4818.0, 4816.0, 4822.0, 4824.0, 4824.0, 4818.0, 4818.0, 4820.0, 4816.0, 4814.0, 4818.0, 4820.0, 4820.0, 4820.0, 4824.0, 4820.0, 4818.0, 4824.0, 4824.0, 4816.0, 4820.0, 4820.0, 4820.0, 4822.0, 4822.0, 4820.0, 4820.0, 4818.0, 4820.0, 4816.0, 4820.0, 4816.0, 4818.0, 4818.0, 4820.0, 4820.0, 4820.0, 4822.0, 4822.0, 4822.0, 4822.0, 4822.0, 4824.0, 4822.0, 4816.0, 4814.0, 4816.0, 4816.0, 4822.0, 4826.0, 4878.0, 4824.0, 4822.0, 4824.0, 4822.0, 4852.0, 4826.0, 4826.0, 4820.0, 4816.0, 4816.0, 4818.0, 4818.0, 4820.0, 4822.0, 4850.0, 4824.0, 4820.0, 4824.0, 4826.0, 4818.0, 4820.0, 4824.0, 4822.0, 4822.0, 4822.0, 4824.0, 4848.0, 4822.0, 4824.0, 4824.0, 4824.0, 4822.0, 4822.0, 4822.0, 4822.0, 4824.0, 4822.0, 4822.0, 4822.0, 4824.0, 4820.0, 4824.0, 4822.0, 4820.0, 4826.0, 4820.0, 4824.0, 4820.0, 4826.0, 4822.0, 4826.0, 4822.0, 4818.0, 4822.0, 4820.0, 4822.0, 4818.0, 4818.0, 4818.0, 4818.0, 4828.0, 4818.0, 4822.0, 4820.0, 4824.0, 4824.0, 4822.0, 4822.0, 4820.0, 4818.0, 4816.0, 4818.0, 4818.0, 4826.0, 4878.0, 4826.0, 4832.0, 4854.0, 4828.0, 4816.0, 4824.0, 4828.0, 4830.0, 4830.0, 4858.0, 4828.0, 4852.0, 4830.0, 4830.0, 4830.0, 4826.0, 4828.0, 4828.0, 4830.0, 4828.0, 4832.0, 4830.0, 4828.0, 4828.0, 4826.0, 4830.0, 4828.0, 4830.0, 4826.0, 4828.0, 4826.0, 4848.0, 4826.0, 4824.0, 4826.0, 4824.0, 4824.0, 4828.0, 4828.0, 4828.0, 4826.0, 4822.0, 4826.0, 4826.0, 4826.0, 4822.0, 4824.0, 4822.0, 4824.0, 4824.0, 4824.0, 4824.0, 4824.0],
      "WindowWidth": [18592.0, 18590.0, 18592.0, 18586.0, 18588.0, 18594.0, 18590.0, 18596.0, 18590.0, 18588.0, 18592.0, 18584.0, 18584.0, 18580.0, 18624.0, 18588.0, 18584.0, 18592.0, 18598.0, 18596.0, 18590.0, 18588.0, 18584.0, 18590.0, 18586.0, 18586.0, 18590.0, 18592.0, 18590.0, 18592.0, 18586.0, 18588.0, 18588.0, 18588.0, 18594.0, 18590.0, 18588.0, 18590.0, 18586.0, 18578.0, 18580.0, 18586.0, 18590.0, 18592.0, 18588.0, 18584.0, 18584.0, 18586.0, 18592.0, 18590.0, 18592.0, 18584.0, 18590.0, 18584.0, 18586.0, 18590.0, 18584.0, 18586.0, 18586.0, 18584.0, 18586.0, 18592.0, 18588.0, 18588.0, 18590.0, 18588.0, 18590.0, 18584.0, 18584.0, 18584.0, 18582.0, 18578.0, 18590.0, 18598.0, 18594.0, 18590.0, 18588.0, 18586.0, 18664.0, 18588.0, 18590.0, 18598.0, 18590.0, 18630.0, 18590.0, 18584.0, 18590.0, 18594.0, 18588.0, 18594.0, 18582.0, 18582.0, 18584.0, 18620.0, 18582.0, 18586.0, 18590.0, 18594.0, 18590.0, 18592.0, 18596.0, 18596.0, 18592.0, 18580.0, 18584.0, 18614.0, 18582.0, 18594.0, 18590.0, 18592.0, 18592.0, 18590.0, 18590.0, 18588.0, 18578.0, 18584.0, 18582.0, 18586.0, 18586.0, 18590.0, 18586.0, 18590.0, 18590.0, 18594.0, 18592.0, 18584.0, 18584.0, 18584.0, 18588.0, 18586.0, 18580.0, 18588.0, 18598.0, 18596.0, 18590.0, 18592.0, 18584.0, 18586.0, 18584.0, 18586.0, 18574.0, 18592.0, 18588.0, 18584.0, 18588.0, 18588.0, 18588.0, 18586.0, 18594.0, 18590.0, 18584.0, 18584.0, 18584.0, 18662.0, 18576.0, 18590.0, 18618.0, 18586.0, 18584.0, 18584.0, 18590.0, 18586.0, 18590.0, 18618.0, 18582.0, 18620.0, 18584.0, 18586.0, 18586.0, 18584.0, 18588.0, 18590.0, 18584.0, 18584.0, 18586.0, 18588.0, 18586.0, 18588.0, 18586.0, 18590.0, 18588.0, 18592.0, 18584.0, 18594.0, 18592.0, 18612.0, 18588.0, 18586.0, 18590.0, 18584.0, 18586.0, 18588.0, 18586.0, 18592.0, 18588.0, 18586.0, 18588.0, 18586.0, 18582.0, 18584.0, 18580.0, 18582.0, 18584.0, 18586.0, 18590.0, 18586.0, 18582.0]
    },
    "slices": {}
  }
}