{
  "AcquisitionMatrixPE": 104,
  "AcquisitionNumber": 1,
  "AcquisitionTime": "18:56:57.072500",
  "BandwidthPerPixelPhaseEncode": 17.17,
  "BaseResolution": 104,
  "BodyPartExamined": "BRAIN",
  "CoilCombinationMethod": "Sum of Squares",
  "ConsistencyInfo": "N4_VE11C_LATEST_20160120",
  "ConversionSoftware": "dcm2niix",
  "ConversionSoftwareVersion": "v1.0.20211006",
  "DerivedVendorReportedEchoSpacing": 0.000560011,
  "DeviceSerialNumber": "167006",
  "DwellTime": 2.1e-06,
  "EchoTime": 0.037,
  "EchoTime1": 0.037,
  "EchoTime2": 0.001,
  "EchoTrainLength": 104,
  "EffectiveEchoSpacing": 0.000560011,
  "FlipAngle": 52,
  "HeudiconvVersion": "0.10.0",
  "ImageComments": "Unaliased MB4/PE3/LB",
  "ImageOrientationPatientDICOM": [0.995449, 0.0806981, 0.0506773, -0.0551314, 0.921499, -0.384448],
  "ImageOrientationText": "Tra>Cor(-22.4)>Sag(4.5)",
  "ImageType": [
    "ORIGINAL",
    "PRIMARY",
    "P",
    "MB",
    "ND",
    "MOSAIC",
    "PHASE"
],
  "ImagingFrequency": 123.259,
  "InPlanePhaseEncodingDirectionDICOM": "COL",
  "InstitutionAddress": "Chemin Queen-Mary 4565,Montreal,District,CA,H3W 1W5",
  "InstitutionName": "IUGM",
  "InstitutionalDepartmentName": "Department",
  "MRAcquisitionType": "2D",
  "MagneticFieldStrength": 3,
  "Manufacturer": "Siemens",
  "ManufacturersModelName": "Prisma_fit",
  "MatrixCoilMode": "SENSE",
  "Modality": "MR",
  "MultibandAccelerationFactor": 4,
  "PartialFourier": 1,
  "PatientPosition": "HFS",
  "PercentPhaseFOV": 100,
  "PercentSampling": 100,
  "PhaseEncodingDirection": "j",
  "PhaseEncodingSteps": 104,
  "PhaseResolution": 1,
  "PixelBandwidth": 2290,
  "ProcedureStepDescription": "games^gamepad",
  "ProtocolName": "func_task-gamepad_run-2",
  "PulseSequenceDetails": "%CustomerSeq%\\cmrr_mbep2d_bold",
  "ReceiveCoilActiveElements": "HC1-7;NC1,2",
  "ReceiveCoilName": "HeadNeck_64",
  "ReconMatrixPE": 104,
  "RepetitionTime": 1.49,
  "SAR": 0.0360157,
  "ScanOptions": "FS",
  "ScanningSequence": "EP",
  "SequenceName": "epfid2d1_104",
  "SequenceVariant": "SK\\SS",
  "SeriesDescription": "func_task-gamepad_run-2",
  "SeriesNumber": 14,
  "ShimSetting": [638, -7176, -8822, 623, 97, 28, -93, -11],
  "SliceThickness": 2,
  "SliceTiming": [0, 0.785, 0.0975, 0.8825, 0.1975, 0.98, 0.295, 1.0775, 0.3925, 1.1775, 0.49, 1.275, 0.5875, 1.3725, 0.6875, 0, 0.785, 0.0975, 0.8825, 0.1975, 0.98, 0.295, 1.0775, 0.3925, 1.1775, 0.49, 1.275, 0.5875, 1.3725, 0.6875, 0, 0.785, 0.0975, 0.8825, 0.1975, 0.98, 0.295, 1.0775, 0.3925, 1.1775, 0.49, 1.275, 0.5875, 1.3725, 0.6875, 0, 0.785, 0.0975, 0.8825, 0.1975, 0.98, 0.295, 1.0775, 0.3925, 1.1775, 0.49, 1.275, 0.5875, 1.3725, 0.6875],
  "SoftwareVersions": "syngo MR E11",
  "SpacingBetweenSlices": 2,
  "StationName": "MRC35049",
  "TaskName": "gamepad",
  "TotalReadoutTime": 0.0576811,
  "TxRefAmp": 246.913,
  "WipMemBlock": "6d864a43-ae82-4690-acc9-12c77584508c||Sequence: R016 ve11c/master r/e634e98; Dec 19 2017 11:00:25 by eja",
  "dcmmeta_affine": [
    [-1.9908989667892456, -0.11026278883218765, 0.15544654428958893, 107.90010070800781],
    [-0.16139629483222961, 1.8429982662200928, -0.759808361530304, -48.633567810058594],
    [0.10135456174612045, 0.7688950896263123, 1.843509554862976, -66.36970520019531],
    [0.0, 0.0, 0.0, 1.0]
],
  "dcmmeta_reorient_transform": [
    [0.0, -1.0, 0.0, 103.0],
    [1.0, 0.0, 0.0, 0.0],
    [0.0, 0.0, 1.0, 0.0],
    [0.0, 0.0, 0.0, 1.0]
],
  "dcmmeta_shape": [104, 104, 60, 207],
  "dcmmeta_slice_dim": 2,
  "dcmmeta_version": 0.6,
  "global": {
    "const": {
      "AcquisitionMatrix": [104, 0, 0, 104],
      "AngioFlag": "N",
      "BitsAllocated": 16,
      "BitsStored": 16,
      "BodyPartExamined": "BRAIN",
      "Columns": 832,
      "EchoNumbers": 1,
      "EchoTime": 37.0,
      "EchoTrainLength": 104,
      "FlipAngle": 52.0,
      "HighBit": 15,
      "ImageOrientationPatient": [0.99544945717969, 0.0806981498852, 0.05067728096267, -0.0551313955723, 0.92149911522855, -0.3844475384955],
      "ImagePositionPatient": [-781.09457897755, -870.79486041448, 255.81123415014],
      "ImageType": [
        "ORIGINAL",
        "PRIMARY",
        "P",
        "MB",
        "ND",
        "MOSAIC"
],
      "ImagedNucleus": "1H",
      "ImagingFrequency": 123.258919,
      "InPlanePhaseEncodingDirection": "COL",
      "LargestImagePixelValue": 4095,
      "MRAcquisitionType": "2D",
      "MagneticFieldStrength": 3.0,
      "Manufacturer": "SIEMENS",
      "ManufacturerModelName": "Prisma_fit",
      "Modality": "MR",
      "NumberOfAverages": 1.0,
      "NumberOfPhaseEncodingSteps": 104,
      "PercentPhaseFieldOfView": 100.0,
      "PercentSampling": 100.0,
      "PerformedProcedureStepStartTime": "184654.938000",
      "PhotometricInterpretation": "MONOCHROME2",
      "PixelBandwidth": 2290.0,
      "PixelRepresentation": 0,
      "PixelSpacing": [2.0, 2.0],
      "ProtocolName": "func_task-gamepad_run-2",
      "RepetitionTime": 1490.0,
      "RescaleIntercept": -4096.0,
      "RescaleSlope": 2.0,
      "RescaleType": "US",
      "Rows": 832,
      "SAR": 0.03601568206886,
      "SamplesPerPixel": 1,
      "ScanOptions": "FS",
      "ScanningSequence": "EP",
      "SequenceName": "epfid2d1_104",
      "SequenceVariant": [
        "SK",
        "SS"
],
      "SeriesDescription": "func_task-gamepad_run-2",
      "SeriesNumber": 14,
      "SeriesTime": "185818.290000",
      "SliceLocation": -34.314150769945,
      "SliceThickness": 2.0,
      "SmallestImagePixelValue": 0,
      "SoftwareVersions": "syngo MR E11",
      "SpacingBetweenSlices": 2.0000000234485,
      "SpecificCharacterSet": "ISO_IR 100",
      "StudyID": "1",
      "StudyTime": "184654.861000",
      "TransmitCoilName": "Body",
      "VariableFlipAngleFlag": "N",
      "WindowCenterWidthExplanation": "Algo1",
      "dBdt": 0.0},
    "slices": {}
  },
  "time": {
    "samples": {
      "AcquisitionNumber": [1, 2, 3, 4, 5, 6, 7, 8, 9, 10, 11, 12, 13, 14, 15, 16, 17, 18, 19, 20, 21, 22, 23, 24, 25, 26, 27, 28, 29, 30, 31, 32, 33, 34, 35, 36, 37, 38, 39, 40, 41, 42, 43, 44, 45, 46, 47, 48, 49, 50, 51, 52, 53, 54, 55, 56, 57, 58, 59, 60, 61, 62, 63, 64, 65, 66, 67, 68, 69, 70, 71, 72, 73, 74, 75, 76, 77, 78, 79, 80, 81, 82, 83, 84, 85, 86, 87, 88, 89, 90, 91, 92, 93, 94, 95, 96, 97, 98, 99, 100, 101, 102, 103, 104, 105, 106, 107, 108, 109, 110, 111, 112, 113, 114, 115, 116, 117, 118, 119, 120, 121, 122, 123, 124, 125, 126, 127, 128, 129, 130, 131, 132, 133, 134, 135, 136, 137, 138, 139, 140, 141, 142, 143, 144, 145, 146, 147, 148, 149, 150, 151, 152, 153, 154, 155, 156, 157, 158, 159, 160, 161, 162, 163, 164, 165, 166, 167, 168, 169, 170, 171, 172, 173, 174, 175, 176, 177, 178, 179, 180, 181, 182, 183, 184, 185, 186, 187, 188, 189, 190, 191, 192, 193, 194, 195, 196, 197, 198, 199, 200, 201, 202, 203, 204, 205, 206, 207],
      "AcquisitionTime": ["185657.072500", "185658.562500", "185700.052500", "185701.542500", "185703.032500", "185704.522500", "185706.012500", "185707.502500", "185708.992500", "185710.482500", "185711.972500", "185713.462500", "185714.952500", "185716.442500", "185717.932500", "185719.422500", "185720.912500", "185722.402500", "185723.892500", "185725.382500", "185726.872500", "185728.362500", "185729.852500", "185731.342500", "185732.832500", "185734.322500", "185735.812500", "185737.302500", "185738.792500", "185740.282500", "185741.772500", "185743.262500", "185744.752500", "185746.242500", "185747.732500", "185749.222500", "185750.712500", "185752.202500", "185753.692500", "185755.182500", "185756.672500", "185758.162500", "185759.652500", "185801.142500", "185802.632500", "185804.122500", "185805.612500", "185807.102500", "185808.592500", "185810.082500", "185811.572500", "185813.062500", "185814.552500", "185816.042500", "185817.532500", "185819.022500", "185820.512500", "185822.002500", "185823.492500", "185824.982500", "185826.472500", "185827.962500", "185829.452500", "185830.942500", "185832.432500", "185833.922500", "185835.412500", "185836.902500", "185838.392500", "185839.882500", "185841.372500", "185842.862500", "185844.352500", "185845.842500", "185847.332500", "185848.822500", "185850.312500", "185851.802500", "185853.292500", "185854.782500", "185856.272500", "185857.762500", "185859.252500", "185900.742500", "185902.232500", "185903.722500", "185905.212500", "185906.702500", "185908.192500", "185909.682500", "185911.172500", "185912.662500", "185914.152500", "185915.642500", "185917.132500", "185918.622500", "185920.112500", "185921.602500", "185923.092500", "185924.582500", "185926.072500", "185927.562500", "185929.052500", "185930.542500", "185932.032500", "185933.522500", "185935.012500", "185936.502500", "185937.992500", "185939.482500", "185940.972500", "185942.462500", "185943.952500", "185945.442500", "185946.932500", "185948.422500", "185949.912500", "185951.402500", "185952.892500", "185954.382500", "185955.872500", "185957.362500", "185958.852500", "190000.342500", "190001.832500", "190003.322500", "190004.812500", "190006.302500", "190007.792500", "190009.282500", "190010.772500", "190012.262500", "190013.752500", "190015.242500", "190016.732500", "190018.222500", "190019.712500", "190021.202500", "190022.692500", "190024.182500", "190025.672500", "190027.162500", "190028.652500", "190030.142500", "190031.632500", "190033.122500", "190034.612500", "190036.102500", "190037.592500", "190039.082500", "190040.572500", "190042.062500", "190043.552500", "190045.042500", "190046.532500", "190048.022500", "190049.512500", "190051.002500", "190052.492500", "190053.982500", "190055.472500", "190056.962500", "190058.452500", "190059.942500", "190101.432500", "190102.922500", "190104.412500", "190105.902500", "190107.392500", "190108.882500", "190110.372500", "190111.862500", "190113.352500", "190114.842500", "190116.332500", "190117.822500", "190119.312500", "190120.802500", "190122.292500", "190123.782500", "190125.272500", "190126.762500", "190128.252500", "190129.742500", "190131.232500", "190132.722500", "190134.212500", "190135.702500", "190137.192500", "190138.682500", "190140.172500", "190141.662500", "190143.152500", "190144.642500", "190146.132500", "190147.622500", "190149.112500", "190150.602500", "190152.092500", "190153.582500", "190155.072500", "190156.562500", "190158.052500", "190159.542500", "190201.032500", "190202.522500", "190204.012500"],
      "ContentTime": ["185818.293000", "185818.296000", "185818.299000", "185818.302000", "185818.304000", "185818.306000", "185818.309000", "185818.311000", "185818.314000", "185818.316000", "185818.319000", "185818.321000", "185818.324000", "185818.326000", "185818.338000", "185818.341000", "185818.343000", "185818.346000", "185818.348000", "185818.351000", "185818.354000", "185818.356000", "185818.358000", "185818.361000", "185818.363000", "185818.366000", "185818.368000", "185837.700000", "185837.703000", "185837.725000", "185837.728000", "185837.730000", "185837.732000", "185837.735000", "185837.738000", "185837.740000", "185837.742000", "185837.745000", "185837.748000", "185837.750000", "185837.753000", "185837.755000", "185837.758000", "185837.760000", "185837.762000", "185837.765000", "185837.767000", "185857.711000", "185857.714000", "185857.716000", "185857.719000", "185857.721000", "185857.729000", "185857.732000", "185857.734000", "185857.737000", "185857.739000", "185857.742000", "185857.744000", "185857.747000", "185857.749000", "185857.752000", "185857.754000", "185857.757000", "185857.759000", "185857.762000", "185857.764000", "185917.710000", "185917.713000", "185917.715000", "185917.718000", "185917.720000", "185917.723000", "185917.725000", "185917.728000", "185917.730000", "185917.732000", "185917.735000", "185917.737000", "185917.750000", "185917.752000", "185917.755000", "185917.757000", "185917.760000", "185917.763000", "185917.773000", "185917.776000", "185917.778000", "185957.775000", "185957.778000", "185957.780000", "185957.783000", "185957.785000", "185957.788000", "185957.790000", "185957.793000", "185957.795000", "185957.798000", "185957.800000", "185957.803000", "185957.805000", "185957.808000", "185957.810000", "185957.813000", "185957.815000", "185957.818000", "185957.820000", "185957.823000", "185957.825000", "185957.828000", "185957.830000", "185957.833000", "185957.835000", "185957.838000", "185957.840000", "185957.843000", "185957.845000", "185957.848000", "185957.850000", "185957.853000", "190037.744000", "190037.746000", "190037.749000", "190037.751000", "190037.754000", "190037.756000", "190037.759000", "190037.761000", "190037.764000", "190037.766000", "190037.769000", "190037.771000", "190037.774000", "190037.776000", "190037.779000", "190037.781000", "190037.784000", "190037.786000", "190037.789000", "190037.791000", "190037.794000", "190037.796000", "190037.799000", "190037.801000", "190037.804000", "190037.806000", "190037.809000", "190117.740000", "190117.742000", "190117.745000", "190117.747000", "190117.750000", "190117.752000", "190117.755000", "190117.757000", "190117.760000", "190117.762000", "190117.765000", "190117.767000", "190117.770000", "190117.772000", "190117.775000", "190117.777000", "190117.780000", "190117.782000", "190117.785000", "190117.787000", "190117.790000", "190117.792000", "190117.795000", "190117.797000", "190117.800000", "190117.802000", "190117.805000", "190157.730000", "190157.733000", "190157.735000", "190157.738000", "190157.740000", "190157.743000", "190157.745000", "190157.748000", "190157.750000", "190157.753000", "190157.755000", "190157.758000", "190157.767000", "190157.770000", "190157.772000", "190157.775000", "190157.777000", "190157.780000", "190157.782000", "190157.784000", "190157.787000", "190157.789000", "190157.792000", "190157.795000", "190157.797000", "190157.799000", "190157.802000", "190206.520000", "190206.522000", "190206.525000", "190206.527000", "190206.530000", "190206.532000"],
      "InstanceCreationTime": ["185818.293000", "185818.296000", "185818.299000", "185818.302000", "185818.304000", "185818.306000", "185818.309000", "185818.311000", "185818.314000", "185818.316000", "185818.319000", "185818.321000", "185818.324000", "185818.326000", "185818.338000", "185818.341000", "185818.343000", "185818.346000", "185818.348000", "185818.351000", "185818.354000", "185818.356000", "185818.358000", "185818.361000", "185818.363000", "185818.366000", "185818.368000", "185837.700000", "185837.703000", "185837.725000", "185837.728000", "185837.730000", "185837.732000", "185837.735000", "185837.738000", "185837.740000", "185837.742000", "185837.745000", "185837.748000", "185837.750000", "185837.753000", "185837.755000", "185837.758000", "185837.760000", "185837.762000", "185837.765000", "185837.767000", "185857.711000", "185857.714000", "185857.716000", "185857.719000", "185857.721000", "185857.729000", "185857.732000", "185857.734000", "185857.737000", "185857.739000", "185857.742000", "185857.744000", "185857.747000", "185857.749000", "185857.752000", "185857.754000", "185857.757000", "185857.759000", "185857.762000", "185857.764000", "185917.710000", "185917.713000", "185917.715000", "185917.718000", "185917.720000", "185917.723000", "185917.725000", "185917.728000", "185917.730000", "185917.732000", "185917.735000", "185917.737000", "185917.750000", "185917.752000", "185917.755000", "185917.757000", "185917.760000", "185917.763000", "185917.773000", "185917.776000", "185917.778000", "185957.775000", "185957.778000", "185957.780000", "185957.783000", "185957.785000", "185957.788000", "185957.790000", "185957.793000", "185957.795000", "185957.798000", "185957.800000", "185957.803000", "185957.805000", "185957.808000", "185957.810000", "185957.813000", "185957.815000", "185957.818000", "185957.820000", "185957.823000", "185957.825000", "185957.828000", "185957.830000", "185957.833000", "185957.835000", "185957.838000", "185957.840000", "185957.843000", "185957.845000", "185957.848000", "185957.850000", "185957.853000", "190037.744000", "190037.746000", "190037.749000", "190037.751000", "190037.754000", "190037.756000", "190037.759000", "190037.761000", "190037.764000", "190037.766000", "190037.769000", "190037.771000", "190037.774000", "190037.776000", "190037.779000", "190037.781000", "190037.784000", "190037.786000", "190037.789000", "190037.791000", "190037.794000", "190037.796000", "190037.799000", "190037.801000", "190037.804000", "190037.806000", "190037.809000", "190117.740000", "190117.742000", "190117.745000", "190117.747000", "190117.750000", "190117.752000", "190117.755000", "190117.757000", "190117.760000", "190117.762000", "190117.765000", "190117.767000", "190117.770000", "190117.772000", "190117.775000", "190117.777000", "190117.780000", "190117.782000", "190117.785000", "190117.787000", "190117.790000", "190117.792000", "190117.795000", "190117.797000", "190117.800000", "190117.802000", "190117.805000", "190157.730000", "190157.733000", "190157.735000", "190157.738000", "190157.740000", "190157.743000", "190157.745000", "190157.748000", "190157.750000", "190157.753000", "190157.755000", "190157.758000", "190157.767000", "190157.770000", "190157.772000", "190157.775000", "190157.777000", "190157.780000", "190157.782000", "190157.784000", "190157.787000", "190157.789000", "190157.792000", "190157.795000", "190157.797000", "190157.799000", "190157.802000", "190206.520000", "190206.522000", "190206.525000", "190206.527000", "190206.530000", "190206.532000"],
      "InstanceNumber": [1, 2, 3, 4, 5, 6, 7, 8, 9, 10, 11, 12, 13, 14, 15, 16, 17, 18, 19, 20, 21, 22, 23, 24, 25, 26, 27, 28, 29, 30, 31, 32, 33, 34, 35, 36, 37, 38, 39, 40, 41, 42, 43, 44, 45, 46, 47, 48, 49, 50, 51, 52, 53, 54, 55, 56, 57, 58, 59, 60, 61, 62, 63, 64, 65, 66, 67, 68, 69, 70, 71, 72, 73, 74, 75, 76, 77, 78, 79, 80, 81, 82, 83, 84, 85, 86, 87, 88, 89, 90, 91, 92, 93, 94, 95, 96, 97, 98, 99, 100, 101, 102, 103, 104, 105, 106, 107, 108, 109, 110, 111, 112, 113, 114, 115, 116, 117, 118, 119, 120, 121, 122, 123, 124, 125, 126, 127, 128, 129, 130, 131, 132, 133, 134, 135, 136, 137, 138, 139, 140, 141, 142, 143, 144, 145, 146, 147, 148, 149, 150, 151, 152, 153, 154, 155, 156, 157, 158, 159, 160, 161, 162, 163, 164, 165, 166, 167, 168, 169, 170, 171, 172, 173, 174, 175, 176, 177, 178, 179, 180, 181, 182, 183, 184, 185, 186, 187, 188, 189, 190, 191, 192, 193, 194, 195, 196, 197, 198, 199, 200, 201, 202, 203, 204, 205, 206, 207],
      "WindowCenter": [4848.0, 4854.0, 4852.0, 4856.0, 4874.0, 4874.0, 4846.0, 4846.0, 4848.0, 4852.0, 4858.0, 4854.0, 4856.0, 4848.0, 4842.0, 4846.0, 4848.0, 4852.0, 4874.0, 4850.0, 4848.0, 4852.0, 4854.0, 4854.0, 4874.0, 4850.0, 4846.0, 4848.0, 4850.0, 4852.0, 4852.0, 4850.0, 4852.0, 4876.0, 4850.0, 4848.0, 4848.0, 4852.0, 4856.0, 4852.0, 4846.0, 4850.0, 4852.0, 4854.0, 4854.0, 4848.0, 4852.0, 4852.0, 4854.0, 4850.0, 4850.0, 4852.0, 4878.0, 4850.0, 4846.0, 4848.0, 4852.0, 4850.0, 4850.0, 4872.0, 4854.0, 4852.0, 4850.0, 4848.0, 4852.0, 4854.0, 4850.0, 4850.0, 4874.0, 4874.0, 4848.0, 4848.0, 4850.0, 4856.0, 4852.0, 4852.0, 4854.0, 4852.0, 4876.0, 4872.0, 4870.0, 4854.0, 4856.0, 4876.0, 4870.0, 4844.0, 4842.0, 4876.0, 4856.0, 4856.0, 4876.0, 4848.0, 4848.0, 4850.0, 4876.0, 4874.0, 4854.0, 4852.0, 4850.0, 4872.0, 4876.0, 4852.0, 4874.0, 4870.0, 4874.0, 4878.0, 4876.0, 4854.0, 4848.0, 4848.0, 4848.0, 4850.0, 4856.0, 4854.0, 4856.0, 4854.0, 4848.0, 4850.0, 4874.0, 4846.0, 4848.0, 4850.0, 4852.0, 4852.0, 4850.0, 4852.0, 4852.0, 4852.0, 4850.0, 4846.0, 4848.0, 4850.0, 4852.0, 4846.0, 4844.0, 4846.0, 4848.0, 4848.0, 4848.0, 4848.0, 4848.0, 4844.0, 4840.0, 4846.0, 4854.0, 4854.0, 4856.0, 4846.0, 4846.0, 4848.0, 4844.0, 4848.0, 4848.0, 4852.0, 4842.0, 4844.0, 4852.0, 4852.0, 4852.0, 4854.0, 4876.0, 4854.0, 4848.0, 4844.0, 4846.0, 4852.0, 4846.0, 4852.0, 4850.0, 4844.0, 4850.0, 4852.0, 4850.0, 4850.0, 4846.0, 4848.0, 4872.0, 4848.0, 4848.0, 4844.0, 4846.0, 4846.0, 4852.0, 4852.0, 4874.0, 4846.0, 4846.0, 4848.0, 4850.0, 4850.0, 4846.0, 4846.0, 4850.0, 4852.0, 4852.0, 4874.0, 4848.0, 4846.0, 4846.0, 4850.0, 4846.0, 4850.0, 4848.0, 4846.0, 4848.0, 4852.0, 4846.0],
      "WindowWidth": [18620.0, 18624.0, 18622.0, 18622.0, 18652.0, 18654.0, 18630.0, 18624.0, 18624.0, 18618.0, 18620.0, 18620.0, 18622.0, 18622.0, 18618.0, 18620.0, 18620.0, 18620.0, 18650.0, 18616.0, 18620.0, 18620.0, 18626.0, 18618.0, 18654.0, 18624.0, 18614.0, 18618.0, 18620.0, 18620.0, 18622.0, 18626.0, 18624.0, 18652.0, 18620.0, 18620.0, 18624.0, 18618.0, 18618.0, 18622.0, 18624.0, 18626.0, 18622.0, 18624.0, 18624.0, 18622.0, 18618.0, 18620.0, 18624.0, 18622.0, 18620.0, 18622.0, 18652.0, 18624.0, 18618.0, 18614.0, 18622.0, 18622.0, 18622.0, 18652.0, 18622.0, 18616.0, 18622.0, 18624.0, 18620.0, 18626.0, 18624.0, 18618.0, 18656.0, 18654.0, 18624.0, 18620.0, 18622.0, 18622.0, 18622.0, 18622.0, 18624.0, 18620.0, 18650.0, 18652.0, 18650.0, 18618.0, 18620.0, 18654.0, 18652.0, 18626.0, 18624.0, 18654.0, 18620.0, 18620.0, 18650.0, 18622.0, 18626.0, 18622.0, 18650.0, 18656.0, 18622.0, 18618.0, 18620.0, 18654.0, 18650.0, 18622.0, 18650.0, 18648.0, 18650.0, 18650.0, 18652.0, 18622.0, 18622.0, 18632.0, 18630.0, 18620.0, 18620.0, 18616.0, 18624.0, 18622.0, 18620.0, 18626.0, 18652.0, 18622.0, 18624.0, 18624.0, 18626.0, 18620.0, 18620.0, 18624.0, 18620.0, 18622.0, 18622.0, 18626.0, 18622.0, 18626.0, 18624.0, 18618.0, 18622.0, 18616.0, 18614.0, 18620.0, 18618.0, 18618.0, 18622.0, 18632.0, 18626.0, 18622.0, 18618.0, 18624.0, 18620.0, 18616.0, 18622.0, 18626.0, 18620.0, 18626.0, 18626.0, 18626.0, 18622.0, 18624.0, 18622.0, 18624.0, 18620.0, 18620.0, 18656.0, 18622.0, 18618.0, 18628.0, 18626.0, 18622.0, 18620.0, 18622.0, 18622.0, 18616.0, 18620.0, 18616.0, 18618.0, 18624.0, 18624.0, 18622.0, 18658.0, 18620.0, 18620.0, 18622.0, 18622.0, 18620.0, 18616.0, 18622.0, 18650.0, 18622.0, 18622.0, 18618.0, 18616.0, 18624.0, 18628.0, 18624.0, 18626.0, 18622.0, 18622.0, 18650.0, 18626.0, 18626.0, 18624.0, 18626.0, 18622.0, 18620.0, 18626.0, 18624.0, 18618.0, 18624.0, 18612.0]
    },
    "slices": {}
  }
}