{
  "AcquisitionMatrixPE": 104,
  "AcquisitionNumber": 1,
  "AcquisitionTime": "11:33:41.487500",
  "BandwidthPerPixelPhaseEncode": 17.17,
  "BaseResolution": 104,
  "BodyPartExamined": "BRAIN",
  "CoilCombinationMethod": "Sum of Squares",
  "ConsistencyInfo": "N4_VE11C_LATEST_20160120",
  "ConversionSoftware": "dcm2niix",
  "ConversionSoftwareVersion": "v1.0.20211006",
  "DerivedVendorReportedEchoSpacing": 0.000560011,
  "DeviceSerialNumber": "167006",
  "DwellTime": 2.1e-06,
  "EchoTime": 0.037,
  "EchoTime1": 0.037,
  "EchoTime2": 0.001,
  "EchoTrainLength": 104,
  "EffectiveEchoSpacing": 0.000560011,
  "FlipAngle": 52,
  "HeudiconvVersion": "0.10.0",
  "ImageComments": "Unaliased MB4/PE3/LB",
  "ImageOrientationPatientDICOM": [0.999555, 0.00894902, 0.0284733, 0.00697834, 0.857477, -0.514475],
  "ImageOrientationText": "Tra>Cor(-31.0)>Sag(1.7)",
  "ImageType": [
    "ORIGINAL",
    "PRIMARY",
    "P",
    "MB",
    "ND",
    "MOSAIC",
    "PHASE"
],
  "ImagingFrequency": 123.259,
  "InPlanePhaseEncodingDirectionDICOM": "COL",
  "InstitutionAddress": "Chemin Queen-Mary 4565,Montreal,District,CA,H3W 1W5",
  "InstitutionName": "IUGM",
  "InstitutionalDepartmentName": "Department",
  "MRAcquisitionType": "2D",
  "MagneticFieldStrength": 3,
  "Manufacturer": "Siemens",
  "ManufacturersModelName": "Prisma_fit",
  "MatrixCoilMode": "SENSE",
  "Modality": "MR",
  "MultibandAccelerationFactor": 4,
  "PartialFourier": 1,
  "PatientPosition": "HFS",
  "PercentPhaseFOV": 100,
  "PercentSampling": 100,
  "PhaseEncodingDirection": "j",
  "PhaseEncodingSteps": 104,
  "PhaseResolution": 1,
  "PixelBandwidth": 2290,
  "ProcedureStepDescription": "games^gamepad",
  "ProtocolName": "func_task-gamepad_run-2",
  "PulseSequenceDetails": "%CustomerSeq%\\cmrr_mbep2d_bold",
  "ReceiveCoilActiveElements": "HC1-7;NC1,2",
  "ReceiveCoilName": "HeadNeck_64",
  "ReconMatrixPE": 104,
  "RepetitionTime": 1.49,
  "SAR": 0.053139,
  "ScanOptions": "FS",
  "ScanningSequence": "EP",
  "SequenceName": "epfid2d1_104",
  "SequenceVariant": "SK\\SS",
  "SeriesDescription": "func_task-gamepad_run-2",
  "SeriesNumber": 14,
  "ShimSetting": [623, -7193, -8870, 247, 10, -198, 15, 14],
  "SliceThickness": 2,
  "SliceTiming": [0, 0.785, 0.0975, 0.8825, 0.1975, 0.98, 0.295, 1.0775, 0.3925, 1.1775, 0.49, 1.275, 0.5875, 1.3725, 0.6875, 0, 0.785, 0.0975, 0.8825, 0.1975, 0.98, 0.295, 1.0775, 0.3925, 1.1775, 0.49, 1.275, 0.5875, 1.3725, 0.6875, 0, 0.785, 0.0975, 0.8825, 0.1975, 0.98, 0.295, 1.0775, 0.3925, 1.1775, 0.49, 1.275, 0.5875, 1.3725, 0.6875, 0, 0.785, 0.0975, 0.8825, 0.1975, 0.98, 0.295, 1.0775, 0.3925, 1.1775, 0.49, 1.275, 0.5875, 1.3725, 0.6875],
  "SoftwareVersions": "syngo MR E11",
  "SpacingBetweenSlices": 2,
  "StationName": "MRC35049",
  "TaskName": "gamepad",
  "TotalReadoutTime": 0.0576811,
  "TxRefAmp": 280.451,
  "WipMemBlock": "004a3408-76e0-4fdf-aeb8-168cbf2f70c1||Sequence: R016 ve11c/master r/e634e98; Dec 19 2017 11:00:25 by eja",
  "dcmmeta_affine": [
    [-1.9991090297698975, 0.013956681825220585, 0.058038510382175446, 104.4864501953125],
    [-0.017898043617606163, 1.7149537801742554, -1.0288894176483154, -50.091026306152344],
    [0.05694662034511566, 1.0289503335952759, 1.7140648365020752, -95.71609497070312],
    [0.0, 0.0, 0.0, 1.0]
],
  "dcmmeta_reorient_transform": [
    [0.0, -1.0, 0.0, 103.0],
    [1.0, 0.0, 0.0, 0.0],
    [0.0, 0.0, 1.0, 0.0],
    [0.0, 0.0, 0.0, 1.0]
],
  "dcmmeta_shape": [104, 104, 60, 207],
  "dcmmeta_slice_dim": 2,
  "dcmmeta_version": 0.6,
  "global": {
    "const": {
      "AcquisitionMatrix": [104, 0, 0, 104],
      "AngioFlag": "N",
      "BitsAllocated": 16,
      "BitsStored": 16,
      "BodyPartExamined": "BRAIN",
      "Columns": 832,
      "EchoNumbers": 1,
      "EchoTime": 37.0,
      "EchoTrainLength": 104,
      "FlipAngle": 52.0,
      "HighBit": 15,
      "ImageOrientationPatient": [0.99955449357219, 0.00894902221598, 0.02847330997664, 0.00697834102983, 0.85747686717046, -0.5144751937888],
      "ImagePositionPatient": [-838.67989245885, -757.30725412357, 364.07516691056],
      "ImageType": [
        "ORIGINAL",
        "PRIMARY",
        "P",
        "MB",
        "ND",
        "MOSAIC"
],
      "ImagedNucleus": "1H",
      "ImagingFrequency": 123.258916,
      "InPlanePhaseEncodingDirection": "COL",
      "LargestImagePixelValue": 4095,
      "MRAcquisitionType": "2D",
      "MagneticFieldStrength": 3.0,
      "Manufacturer": "SIEMENS",
      "ManufacturerModelName": "Prisma_fit",
      "Modality": "MR",
      "NumberOfAverages": 1.0,
      "NumberOfPhaseEncodingSteps": 104,
      "PercentPhaseFieldOfView": 100.0,
      "PercentSampling": 100.0,
      "PerformedProcedureStepStartTime": "112527.628000",
      "PhotometricInterpretation": "MONOCHROME2",
      "PixelBandwidth": 2290.0,
      "PixelRepresentation": 0,
      "PixelSpacing": [2.0, 2.0],
      "ProtocolName": "func_task-gamepad_run-2",
      "RepetitionTime": 1490.0,
      "RescaleIntercept": -4096.0,
      "RescaleSlope": 2.0,
      "RescaleType": "US",
      "Rows": 832,
      "SAR": 0.05313904281358,
      "SamplesPerPixel": 1,
      "ScanOptions": "FS",
      "ScanningSequence": "EP",
      "SequenceName": "epfid2d1_104",
      "SequenceVariant": [
        "SK",
        "SS"
],
      "SeriesDescription": "func_task-gamepad_run-2",
      "SeriesNumber": 14,
      "SeriesTime": "113455.698000",
      "SliceLocation": -53.230612548053,
      "SliceThickness": 2.0,
      "SmallestImagePixelValue": 0,
      "SoftwareVersions": "syngo MR E11",
      "SpacingBetweenSlices": 2.0000000045888,
      "SpecificCharacterSet": "ISO_IR 100",
      "StudyID": "1",
      "StudyTime": "112527.550000",
      "TransmitCoilName": "Body",
      "VariableFlipAngleFlag": "N",
      "WindowCenterWidthExplanation": "Algo1",
      "dBdt": 0.0},
    "slices": {}
  },
  "time": {
    "samples": {
      "AcquisitionNumber": [1, 2, 3, 4, 5, 6, 7, 8, 9, 10, 11, 12, 13, 14, 15, 16, 17, 18, 19, 20, 21, 22, 23, 24, 25, 26, 27, 28, 29, 30, 31, 32, 33, 34, 35, 36, 37, 38, 39, 40, 41, 42, 43, 44, 45, 46, 47, 48, 49, 50, 51, 52, 53, 54, 55, 56, 57, 58, 59, 60, 61, 62, 63, 64, 65, 66, 67, 68, 69, 70, 71, 72, 73, 74, 75, 76, 77, 78, 79, 80, 81, 82, 83, 84, 85, 86, 87, 88, 89, 90, 91, 92, 93, 94, 95, 96, 97, 98, 99, 100, 101, 102, 103, 104, 105, 106, 107, 108, 109, 110, 111, 112, 113, 114, 115, 116, 117, 118, 119, 120, 121, 122, 123, 124, 125, 126, 127, 128, 129, 130, 131, 132, 133, 134, 135, 136, 137, 138, 139, 140, 141, 142, 143, 144, 145, 146, 147, 148, 149, 150, 151, 152, 153, 154, 155, 156, 157, 158, 159, 160, 161, 162, 163, 164, 165, 166, 167, 168, 169, 170, 171, 172, 173, 174, 175, 176, 177, 178, 179, 180, 181, 182, 183, 184, 185, 186, 187, 188, 189, 190, 191, 192, 193, 194, 195, 196, 197, 198, 199, 200, 201, 202, 203, 204, 205, 206, 207],
      "AcquisitionTime": ["113341.487500", "113342.977500", "113344.467500", "113345.957500", "113347.447500", "113348.937500", "113350.427500", "113351.917500", "113353.407500", "113354.897500", "113356.387500", "113357.877500", "113359.367500", "113400.857500", "113402.347500", "113403.837500", "113405.327500", "113406.817500", "113408.307500", "113409.797500", "113411.287500", "113412.777500", "113414.267500", "113415.757500", "113417.247500", "113418.737500", "113420.227500", "113421.717500", "113423.207500", "113424.697500", "113426.187500", "113427.677500", "113429.167500", "113430.657500", "113432.147500", "113433.637500", "113435.127500", "113436.617500", "113438.107500", "113439.597500", "113441.087500", "113442.577500", "113444.067500", "113445.557500", "113447.047500", "113448.537500", "113450.027500", "113451.517500", "113453.007500", "113454.497500", "113455.987500", "113457.477500", "113458.967500", "113500.457500", "113501.947500", "113503.437500", "113504.927500", "113506.417500", "113507.907500", "113509.397500", "113510.887500", "113512.377500", "113513.867500", "113515.357500", "113516.847500", "113518.337500", "113519.827500", "113521.317500", "113522.807500", "113524.297500", "113525.787500", "113527.277500", "113528.767500", "113530.257500", "113531.747500", "113533.237500", "113534.727500", "113536.217500", "113537.707500", "113539.197500", "113540.687500", "113542.177500", "113543.667500", "113545.157500", "113546.647500", "113548.137500", "113549.627500", "113551.117500", "113552.607500", "113554.097500", "113555.587500", "113557.077500", "113558.567500", "113600.057500", "113601.547500", "113603.037500", "113604.527500", "113606.017500", "113607.507500", "113608.997500", "113610.487500", "113611.977500", "113613.467500", "113614.957500", "113616.447500", "113617.937500", "113619.427500", "113620.917500", "113622.407500", "113623.897500", "113625.387500", "113626.877500", "113628.367500", "113629.857500", "113631.347500", "113632.837500", "113634.327500", "113635.817500", "113637.307500", "113638.797500", "113640.287500", "113641.777500", "113643.267500", "113644.757500", "113646.247500", "113647.737500", "113649.227500", "113650.717500", "113652.207500", "113653.697500", "113655.187500", "113656.677500", "113658.167500", "113659.657500", "113701.147500", "113702.637500", "113704.127500", "113705.617500", "113707.107500", "113708.597500", "113710.087500", "113711.577500", "113713.067500", "113714.557500", "113716.047500", "113717.537500", "113719.027500", "113720.517500", "113722.007500", "113723.497500", "113724.987500", "113726.477500", "113727.967500", "113729.457500", "113730.947500", "113732.437500", "113733.927500", "113735.417500", "113736.907500", "113738.397500", "113739.887500", "113741.377500", "113742.867500", "113744.357500", "113745.847500", "113747.337500", "113748.827500", "113750.317500", "113751.807500", "113753.297500", "113754.787500", "113756.277500", "113757.767500", "113759.257500", "113800.747500", "113802.237500", "113803.727500", "113805.217500", "113806.707500", "113808.197500", "113809.687500", "113811.177500", "113812.667500", "113814.157500", "113815.647500", "113817.137500", "113818.627500", "113820.117500", "113821.607500", "113823.097500", "113824.587500", "113826.077500", "113827.567500", "113829.057500", "113830.547500", "113832.037500", "113833.527500", "113835.017500", "113836.507500", "113837.997500", "113839.487500", "113840.977500", "113842.467500", "113843.957500", "113845.447500", "113846.937500", "113848.427500"],
      "ContentTime": ["113455.701000", "113455.703000", "113455.706000", "113455.708000", "113455.711000", "113455.713000", "113455.716000", "113455.718000", "113455.721000", "113455.724000", "113455.726000", "113455.729000", "113455.731000", "113455.734000", "113455.736000", "113455.739000", "113455.741000", "113455.744000", "113455.746000", "113455.749000", "113455.751000", "113515.635000", "113515.638000", "113515.640000", "113515.643000", "113515.645000", "113515.648000", "113515.650000", "113515.653000", "113515.655000", "113515.658000", "113515.660000", "113515.663000", "113515.665000", "113515.668000", "113515.670000", "113515.673000", "113515.675000", "113515.678000", "113515.680000", "113515.683000", "113535.629000", "113535.631000", "113535.634000", "113535.636000", "113535.639000", "113535.641000", "113535.644000", "113535.647000", "113535.649000", "113535.652000", "113535.655000", "113535.657000", "113535.659000", "113535.662000", "113535.664000", "113535.667000", "113535.670000", "113535.672000", "113535.675000", "113535.677000", "113555.639000", "113555.642000", "113555.645000", "113555.647000", "113555.650000", "113555.652000", "113555.655000", "113555.657000", "113555.660000", "113555.662000", "113555.665000", "113555.667000", "113555.670000", "113555.672000", "113555.675000", "113555.677000", "113555.680000", "113555.683000", "113555.685000", "113555.688000", "113615.649000", "113615.652000", "113615.655000", "113615.657000", "113615.660000", "113615.662000", "113615.665000", "113615.667000", "113615.670000", "113615.672000", "113615.675000", "113615.677000", "113615.680000", "113615.682000", "113615.685000", "113615.687000", "113615.690000", "113615.692000", "113615.695000", "113615.697000", "113655.663000", "113655.666000", "113655.668000", "113655.671000", "113655.674000", "113655.677000", "113655.679000", "113655.682000", "113655.684000", "113655.687000", "113655.690000", "113655.692000", "113655.695000", "113655.697000", "113655.700000", "113655.702000", "113655.705000", "113655.707000", "113655.710000", "113655.712000", "113655.715000", "113655.717000", "113655.720000", "113655.722000", "113655.725000", "113655.728000", "113655.730000", "113655.733000", "113735.665000", "113735.668000", "113735.670000", "113735.673000", "113735.675000", "113735.678000", "113735.680000", "113735.683000", "113735.685000", "113735.688000", "113735.690000", "113735.693000", "113735.695000", "113735.698000", "113735.700000", "113735.703000", "113735.705000", "113735.708000", "113735.710000", "113735.713000", "113735.716000", "113735.718000", "113735.721000", "113735.723000", "113735.726000", "113735.728000", "113735.731000", "113815.656000", "113815.659000", "113815.661000", "113815.664000", "113815.667000", "113815.669000", "113815.672000", "113815.674000", "113815.677000", "113815.679000", "113815.682000", "113815.684000", "113815.687000", "113815.689000", "113815.692000", "113815.694000", "113815.698000", "113815.701000", "113815.703000", "113815.706000", "113815.708000", "113815.711000", "113815.713000", "113815.716000", "113815.719000", "113815.721000", "113815.724000", "113850.741000", "113850.744000", "113850.747000", "113850.749000", "113850.752000", "113850.754000", "113850.757000", "113850.759000", "113850.762000", "113850.764000", "113850.767000", "113850.769000", "113850.848000", "113850.851000", "113850.853000", "113850.856000", "113850.858000", "113850.861000", "113850.864000", "113850.866000", "113850.869000", "113850.871000", "113850.874000", "113850.876000"],
      "InstanceCreationTime": ["113455.701000", "113455.703000", "113455.706000", "113455.708000", "113455.711000", "113455.713000", "113455.716000", "113455.718000", "113455.721000", "113455.724000", "113455.726000", "113455.729000", "113455.731000", "113455.734000", "113455.736000", "113455.739000", "113455.741000", "113455.744000", "113455.746000", "113455.749000", "113455.751000", "113515.635000", "113515.638000", "113515.640000", "113515.643000", "113515.645000", "113515.648000", "113515.650000", "113515.653000", "113515.655000", "113515.658000", "113515.660000", "113515.663000", "113515.665000", "113515.668000", "113515.670000", "113515.673000", "113515.675000", "113515.678000", "113515.680000", "113515.683000", "113535.629000", "113535.631000", "113535.634000", "113535.636000", "113535.639000", "113535.641000", "113535.644000", "113535.647000", "113535.649000", "113535.652000", "113535.655000", "113535.657000", "113535.659000", "113535.662000", "113535.664000", "113535.667000", "113535.670000", "113535.672000", "113535.675000", "113535.677000", "113555.639000", "113555.642000", "113555.645000", "113555.647000", "113555.650000", "113555.652000", "113555.655000", "113555.657000", "113555.660000", "113555.662000", "113555.665000", "113555.667000", "113555.670000", "113555.672000", "113555.675000", "113555.677000", "113555.680000", "113555.683000", "113555.685000", "113555.688000", "113615.649000", "113615.652000", "113615.655000", "113615.657000", "113615.660000", "113615.662000", "113615.665000", "113615.667000", "113615.670000", "113615.672000", "113615.675000", "113615.677000", "113615.680000", "113615.682000", "113615.685000", "113615.687000", "113615.690000", "113615.692000", "113615.695000", "113615.697000", "113655.663000", "113655.666000", "113655.668000", "113655.671000", "113655.674000", "113655.677000", "113655.679000", "113655.682000", "113655.684000", "113655.687000", "113655.690000", "113655.692000", "113655.695000", "113655.697000", "113655.700000", "113655.702000", "113655.705000", "113655.707000", "113655.710000", "113655.712000", "113655.715000", "113655.717000", "113655.720000", "113655.722000", "113655.725000", "113655.728000", "113655.730000", "113655.733000", "113735.665000", "113735.668000", "113735.670000", "113735.673000", "113735.675000", "113735.678000", "113735.680000", "113735.683000", "113735.685000", "113735.688000", "113735.690000", "113735.693000", "113735.695000", "113735.698000", "113735.700000", "113735.703000", "113735.705000", "113735.708000", "113735.710000", "113735.713000", "113735.716000", "113735.718000", "113735.721000", "113735.723000", "113735.726000", "113735.728000", "113735.731000", "113815.656000", "113815.659000", "113815.661000", "113815.664000", "113815.667000", "113815.669000", "113815.672000", "113815.674000", "113815.677000", "113815.679000", "113815.682000", "113815.684000", "113815.687000", "113815.689000", "113815.692000", "113815.694000", "113815.698000", "113815.701000", "113815.703000", "113815.706000", "113815.708000", "113815.711000", "113815.713000", "113815.716000", "113815.719000", "113815.721000", "113815.724000", "113850.741000", "113850.744000", "113850.747000", "113850.749000", "113850.752000", "113850.754000", "113850.757000", "113850.759000", "113850.762000", "113850.764000", "113850.767000", "113850.769000", "113850.848000", "113850.851000", "113850.853000", "113850.856000", "113850.858000", "113850.861000", "113850.864000", "113850.866000", "113850.869000", "113850.871000", "113850.874000", "113850.876000"],
      "InstanceNumber": [1, 2, 3, 4, 5, 6, 7, 8, 9, 10, 11, 12, 13, 14, 15, 16, 17, 18, 19, 20, 21, 22, 23, 24, 25, 26, 27, 28, 29, 30, 31, 32, 33, 34, 35, 36, 37, 38, 39, 40, 41, 42, 43, 44, 45, 46, 47, 48, 49, 50, 51, 52, 53, 54, 55, 56, 57, 58, 59, 60, 61, 62, 63, 64, 65, 66, 67, 68, 69, 70, 71, 72, 73, 74, 75, 76, 77, 78, 79, 80, 81, 82, 83, 84, 85, 86, 87, 88, 89, 90, 91, 92, 93, 94, 95, 96, 97, 98, 99, 100, 101, 102, 103, 104, 105, 106, 107, 108, 109, 110, 111, 112, 113, 114, 115, 116, 117, 118, 119, 120, 121, 122, 123, 124, 125, 126, 127, 128, 129, 130, 131, 132, 133, 134, 135, 136, 137, 138, 139, 140, 141, 142, 143, 144, 145, 146, 147, 148, 149, 150, 151, 152, 153, 154, 155, 156, 157, 158, 159, 160, 161, 162, 163, 164, 165, 166, 167, 168, 169, 170, 171, 172, 173, 174, 175, 176, 177, 178, 179, 180, 181, 182, 183, 184, 185, 186, 187, 188, 189, 190, 191, 192, 193, 194, 195, 196, 197, 198, 199, 200, 201, 202, 203, 204, 205, 206, 207],
      "WindowCenter": [4800.0, 4800.0, 4796.0, 4802.0, 4798.0, 4798.0, 4798.0, 4800.0, 4794.0, 4798.0, 4798.0, 4798.0, 4796.0, 4796.0, 4798.0, 4798.0, 4796.0, 4796.0, 4796.0, 4802.0, 4794.0, 4794.0, 4804.0, 4804.0, 4798.0, 4798.0, 4800.0, 4800.0, 4796.0, 4800.0, 4798.0, 4796.0, 4802.0, 4802.0, 4800.0, 4798.0, 4800.0, 4800.0, 4800.0, 4800.0, 4800.0, 4800.0, 4802.0, 4800.0, 4802.0, 4804.0, 4802.0, 4804.0, 4802.0, 4800.0, 4808.0, 4802.0, 4802.0, 4798.0, 4800.0, 4804.0, 4804.0, 4798.0, 4800.0, 4796.0, 4798.0, 4798.0, 4800.0, 4804.0, 4800.0, 4802.0, 4796.0, 4804.0, 4804.0, 4804.0, 4798.0, 4800.0, 4802.0, 4802.0, 4798.0, 4796.0, 4804.0, 4796.0, 4804.0, 4798.0, 4796.0, 4802.0, 4802.0, 4802.0, 4800.0, 4800.0, 4804.0, 4802.0, 4798.0, 4800.0, 4802.0, 4796.0, 4800.0, 4800.0, 4800.0, 4800.0, 4796.0, 4802.0, 4804.0, 4802.0, 4800.0, 4798.0, 4802.0, 4796.0, 4802.0, 4790.0, 4778.0, 4798.0, 4896.0, 4876.0, 4872.0, 4804.0, 4802.0, 4804.0, 4804.0, 4808.0, 4806.0, 4798.0, 4804.0, 4830.0, 4832.0, 4804.0, 4802.0, 4802.0, 4820.0, 4808.0, 4798.0, 4800.0, 4830.0, 4866.0, 4832.0, 4826.0, 4800.0, 4800.0, 4804.0, 4800.0, 4800.0, 4802.0, 4798.0, 4800.0, 4800.0, 4804.0, 4800.0, 4824.0, 4802.0, 4798.0, 4800.0, 4802.0, 4800.0, 4800.0, 4800.0, 4806.0, 4802.0, 4798.0, 4802.0, 4804.0, 4802.0, 4804.0, 4804.0, 4800.0, 4800.0, 4802.0, 4802.0, 4802.0, 4800.0, 4802.0, 4802.0, 4802.0, 4802.0, 4804.0, 4802.0, 4798.0, 4798.0, 4802.0, 4798.0, 4800.0, 4804.0, 4806.0, 4802.0, 4800.0, 4804.0, 4804.0, 4804.0, 4798.0, 4800.0, 4802.0, 4800.0, 4800.0, 4800.0, 4800.0, 4802.0, 4800.0, 4802.0, 4806.0, 4800.0, 4804.0, 4804.0, 4800.0, 4800.0, 4798.0, 4804.0, 4804.0, 4804.0, 4802.0, 4802.0, 4804.0, 4800.0],
      "WindowWidth": [18608.0, 18614.0, 18610.0, 18614.0, 18610.0, 18610.0, 18612.0, 18610.0, 18604.0, 18610.0, 18616.0, 18608.0, 18610.0, 18614.0, 18612.0, 18616.0, 18608.0, 18604.0, 18610.0, 18612.0, 18606.0, 18608.0, 18610.0, 18614.0, 18610.0, 18614.0, 18616.0, 18616.0, 18614.0, 18614.0, 18612.0, 18606.0, 18608.0, 18606.0, 18614.0, 18612.0, 18614.0, 18614.0, 18618.0, 18616.0, 18614.0, 18614.0, 18612.0, 18608.0, 18614.0, 18612.0, 18612.0, 18620.0, 18614.0, 18616.0, 18626.0, 18622.0, 18622.0, 18610.0, 18612.0, 18612.0, 18614.0, 18610.0, 18612.0, 18608.0, 18614.0, 18612.0, 18616.0, 18616.0, 18618.0, 18618.0, 18614.0, 18614.0, 18608.0, 18612.0, 18610.0, 18616.0, 18618.0, 18616.0, 18610.0, 18608.0, 18614.0, 18608.0, 18616.0, 18608.0, 18610.0, 18612.0, 18612.0, 18618.0, 18618.0, 18616.0, 18618.0, 18616.0, 18610.0, 18612.0, 18614.0, 18612.0, 18606.0, 18610.0, 18608.0, 18618.0, 18608.0, 18614.0, 18614.0, 18616.0, 18616.0, 18610.0, 18618.0, 18610.0, 18612.0, 18582.0, 18574.0, 18606.0, 18720.0, 18684.0, 18682.0, 18612.0, 18618.0, 18628.0, 18624.0, 18626.0, 18622.0, 18618.0, 18614.0, 18632.0, 18636.0, 18610.0, 18608.0, 18614.0, 18616.0, 18620.0, 18616.0, 18610.0, 18640.0, 18678.0, 18636.0, 18642.0, 18616.0, 18614.0, 18624.0, 18614.0, 18618.0, 18616.0, 18614.0, 18610.0, 18606.0, 18608.0, 18606.0, 18642.0, 18612.0, 18610.0, 18616.0, 18610.0, 18614.0, 18616.0, 18616.0, 18624.0, 18616.0, 18608.0, 18610.0, 18608.0, 18612.0, 18612.0, 18616.0, 18614.0, 18616.0, 18616.0, 18618.0, 18620.0, 18614.0, 18616.0, 18612.0, 18610.0, 18608.0, 18616.0, 18616.0, 18616.0, 18614.0, 18622.0, 18612.0, 18608.0, 18608.0, 18616.0, 18618.0, 18614.0, 18612.0, 18606.0, 18606.0, 18610.0, 18608.0, 18616.0, 18618.0, 18616.0, 18614.0, 18616.0, 18616.0, 18612.0, 18610.0, 18612.0, 18610.0, 18618.0, 18618.0, 18618.0, 18612.0, 18612.0, 18614.0, 18608.0, 18610.0, 18614.0, 18608.0, 18612.0, 18614.0]
    },
    "slices": {}
  }
}