{
  "AcquisitionMatrixPE": 104,
  "AcquisitionNumber": 1,
  "AcquisitionTime": "15:58:29.270000",
  "BandwidthPerPixelPhaseEncode": 17.17,
  "BaseResolution": 104,
  "BodyPartExamined": "BRAIN",
  "CoilCombinationMethod": "Sum of Squares",
  "ConsistencyInfo": "N4_VE11C_LATEST_20160120",
  "ConversionSoftware": "dcm2niix",
  "ConversionSoftwareVersion": "v1.0.20211006",
  "DerivedVendorReportedEchoSpacing": 0.000560011,
  "DeviceSerialNumber": "167006",
  "DwellTime": 2.1e-06,
  "EchoTime": 0.037,
  "EchoTime1": 0.037,
  "EchoTime2": 0.001,
  "EchoTrainLength": 104,
  "EffectiveEchoSpacing": 0.000560011,
  "FlipAngle": 52,
  "HeudiconvVersion": "0.10.0",
  "ImageComments": "Unaliased MB4/PE3/LB",
  "ImageOrientationPatientDICOM": [0.998888, -0.0451911, 0.0134394, 0.0471063, 0.944752, -0.324384],
  "ImageOrientationText": "Tra>Cor(-18.9)>Sag(-0.1)",
  "ImageType": [
    "ORIGINAL",
    "PRIMARY",
    "P",
    "MB",
    "ND",
    "MOSAIC",
    "PHASE"
],
  "ImagingFrequency": 123.259,
  "InPlanePhaseEncodingDirectionDICOM": "COL",
  "InstitutionAddress": "Chemin Queen-Mary 4565,Montreal,District,CA,H3W 1W5",
  "InstitutionName": "IUGM",
  "InstitutionalDepartmentName": "Department",
  "MRAcquisitionType": "2D",
  "MagneticFieldStrength": 3,
  "Manufacturer": "Siemens",
  "ManufacturersModelName": "Prisma_fit",
  "MatrixCoilMode": "SENSE",
  "Modality": "MR",
  "MultibandAccelerationFactor": 4,
  "PartialFourier": 1,
  "PatientPosition": "HFS",
  "PercentPhaseFOV": 100,
  "PercentSampling": 100,
  "PhaseEncodingDirection": "j",
  "PhaseEncodingSteps": 104,
  "PhaseResolution": 1,
  "PixelBandwidth": 2290,
  "ProcedureStepDescription": "games^gamepad",
  "ProtocolName": "func_task-gamepad_run-1",
  "PulseSequenceDetails": "%CustomerSeq%\\cmrr_mbep2d_bold",
  "ReceiveCoilActiveElements": "HC1-7;NC1,2",
  "ReceiveCoilName": "HeadNeck_64",
  "ReconMatrixPE": 104,
  "RepetitionTime": 1.49,
  "SAR": 0.0375765,
  "ScanOptions": "FS",
  "ScanningSequence": "EP",
  "SequenceName": "epfid2d1_104",
  "SequenceVariant": "SK\\SS",
  "SeriesDescription": "func_task-gamepad_run-1",
  "SeriesNumber": 11,
  "ShimSetting": [627, -7251, -8826, 583, 3, -164, -60, -17],
  "SliceThickness": 2,
  "SliceTiming": [0, 0.785, 0.1, 0.8825, 0.1975, 0.98, 0.295, 1.08, 0.3925, 1.1775, 0.49, 1.275, 0.59, 1.3725, 0.6875, 0, 0.785, 0.1, 0.8825, 0.1975, 0.98, 0.295, 1.08, 0.3925, 1.1775, 0.49, 1.275, 0.59, 1.3725, 0.6875, 0, 0.785, 0.1, 0.8825, 0.1975, 0.98, 0.295, 1.08, 0.3925, 1.1775, 0.49, 1.275, 0.59, 1.3725, 0.6875, 0, 0.785, 0.1, 0.8825, 0.1975, 0.98, 0.295, 1.08, 0.3925, 1.1775, 0.49, 1.275, 0.59, 1.3725, 0.6875],
  "SoftwareVersions": "syngo MR E11",
  "SpacingBetweenSlices": 2,
  "StationName": "MRC35049",
  "TaskName": "gamepad",
  "TotalReadoutTime": 0.0576811,
  "TxRefAmp": 235.582,
  "WipMemBlock": "4987cdfc-9108-4350-bb99-f1104e5b02ce||Sequence: R016 ve11c/master r/e634e98; Dec 19 2017 11:00:25 by eja",
  "dcmmeta_affine": [
    [-1.997775912284851, 0.09421264380216599, -0.003924747928977013, 102.97236633300781],
    [0.09038227796554565, 1.889503836631775, -0.6493121981620789, -70.23656463623047],
    [0.02687879651784897, 0.6487674713134766, 1.891660213470459, -64.2536849975586],
    [0.0, 0.0, 0.0, 1.0]
],
  "dcmmeta_reorient_transform": [
    [0.0, -1.0, 0.0, 103.0],
    [1.0, 0.0, 0.0, 0.0],
    [0.0, 0.0, 1.0, 0.0],
    [0.0, 0.0, 0.0, 1.0]
],
  "dcmmeta_shape": [104, 104, 60, 207],
  "dcmmeta_slice_dim": 2,
  "dcmmeta_version": 0.6,
  "global": {
    "const": {
      "AcquisitionMatrix": [104, 0, 0, 104],
      "AngioFlag": "N",
      "BitsAllocated": 16,
      "BitsStored": 16,
      "BodyPartExamined": "BRAIN",
      "Columns": 832,
      "EchoNumbers": 1,
      "EchoTime": 37.0,
      "EchoTrainLength": 104,
      "FlipAngle": 52.0,
      "HighBit": 15,
      "ImageOrientationPatient": [0.99888795338395, -0.0451911403066, 0.01343939813465, 0.0471063230662, 0.9447519163334, -0.3243837402083],
      "ImagePositionPatient": [-874.16010080331, -779.26257812071, 228.93684609348],
      "ImageType": [
        "ORIGINAL",
        "PRIMARY",
        "P",
        "MB",
        "ND",
        "MOSAIC"
],
      "ImagedNucleus": "1H",
      "ImagingFrequency": 123.258883,
      "InPlanePhaseEncodingDirection": "COL",
      "LargestImagePixelValue": 4095,
      "MRAcquisitionType": "2D",
      "MagneticFieldStrength": 3.0,
      "Manufacturer": "SIEMENS",
      "ManufacturerModelName": "Prisma_fit",
      "Modality": "MR",
      "NumberOfAverages": 1.0,
      "NumberOfPhaseEncodingSteps": 104,
      "PercentPhaseFieldOfView": 100.0,
      "PercentSampling": 100.0,
      "PerformedProcedureStepStartTime": "155445.384000",
      "PhotometricInterpretation": "MONOCHROME2",
      "PixelBandwidth": 2290.0,
      "PixelRepresentation": 0,
      "PixelSpacing": [2.0, 2.0],
      "ProtocolName": "func_task-gamepad_run-1",
      "RepetitionTime": 1490.0,
      "RescaleIntercept": -4096.0,
      "RescaleSlope": 2.0,
      "RescaleType": "US",
      "Rows": 832,
      "SAR": 0.03757652994951,
      "SamplesPerPixel": 1,
      "ScanOptions": "FS",
      "ScanningSequence": "EP",
      "SequenceName": "epfid2d1_104",
      "SequenceVariant": [
        "SK",
        "SS"
],
      "SeriesDescription": "func_task-gamepad_run-1",
      "SeriesNumber": 11,
      "SeriesTime": "155946.912000",
      "SliceLocation": -38.172412245698,
      "SliceThickness": 2.0,
      "SmallestImagePixelValue": 0,
      "SoftwareVersions": "syngo MR E11",
      "SpacingBetweenSlices": 1.9999999806115,
      "SpecificCharacterSet": "ISO_IR 100",
      "StudyID": "1",
      "StudyTime": "155445.296000",
      "TransmitCoilName": "Body",
      "VariableFlipAngleFlag": "N",
      "WindowCenterWidthExplanation": "Algo1",
      "dBdt": 0.0},
    "slices": {}
  },
  "time": {
    "samples": {
      "AcquisitionNumber": [1, 2, 3, 4, 5, 6, 7, 8, 9, 10, 11, 12, 13, 14, 15, 16, 17, 18, 19, 20, 21, 22, 23, 24, 25, 26, 27, 28, 29, 30, 31, 32, 33, 34, 35, 36, 37, 38, 39, 40, 41, 42, 43, 44, 45, 46, 47, 48, 49, 50, 51, 52, 53, 54, 55, 56, 57, 58, 59, 60, 61, 62, 63, 64, 65, 66, 67, 68, 69, 70, 71, 72, 73, 74, 75, 76, 77, 78, 79, 80, 81, 82, 83, 84, 85, 86, 87, 88, 89, 90, 91, 92, 93, 94, 95, 96, 97, 98, 99, 100, 101, 102, 103, 104, 105, 106, 107, 108, 109, 110, 111, 112, 113, 114, 115, 116, 117, 118, 119, 120, 121, 122, 123, 124, 125, 126, 127, 128, 129, 130, 131, 132, 133, 134, 135, 136, 137, 138, 139, 140, 141, 142, 143, 144, 145, 146, 147, 148, 149, 150, 151, 152, 153, 154, 155, 156, 157, 158, 159, 160, 161, 162, 163, 164, 165, 166, 167, 168, 169, 170, 171, 172, 173, 174, 175, 176, 177, 178, 179, 180, 181, 182, 183, 184, 185, 186, 187, 188, 189, 190, 191, 192, 193, 194, 195, 196, 197, 198, 199, 200, 201, 202, 203, 204, 205, 206, 207],
      "AcquisitionTime": ["155829.270000", "155830.760000", "155832.250000", "155833.740000", "155835.230000", "155836.720000", "155838.210000", "155839.700000", "155841.190000", "155842.680000", "155844.170000", "155845.660000", "155847.150000", "155848.640000", "155850.130000", "155851.620000", "155853.110000", "155854.600000", "155856.090000", "155857.580000", "155859.070000", "155900.560000", "155902.050000", "155903.540000", "155905.030000", "155906.520000", "155908.010000", "155909.500000", "155910.990000", "155912.480000", "155913.970000", "155915.460000", "155916.950000", "155918.440000", "155919.930000", "155921.420000", "155922.910000", "155924.400000", "155925.890000", "155927.380000", "155928.870000", "155930.360000", "155931.850000", "155933.340000", "155934.830000", "155936.320000", "155937.810000", "155939.300000", "155940.790000", "155942.280000", "155943.770000", "155945.260000", "155946.750000", "155948.240000", "155949.730000", "155951.220000", "155952.710000", "155954.200000", "155955.690000", "155957.180000", "155958.670000", "160000.160000", "160001.650000", "160003.140000", "160004.630000", "160006.120000", "160007.610000", "160009.100000", "160010.590000", "160012.080000", "160013.570000", "160015.060000", "160016.550000", "160018.040000", "160019.530000", "160021.020000", "160022.510000", "160024.000000", "160025.490000", "160026.980000", "160028.470000", "160029.960000", "160031.450000", "160032.940000", "160034.430000", "160035.920000", "160037.410000", "160038.900000", "160040.390000", "160041.880000", "160043.370000", "160044.860000", "160046.350000", "160047.840000", "160049.330000", "160050.820000", "160052.310000", "160053.800000", "160055.290000", "160056.780000", "160058.270000", "160059.760000", "160101.250000", "160102.740000", "160104.230000", "160105.720000", "160107.210000", "160108.700000", "160110.190000", "160111.680000", "160113.170000", "160114.660000", "160116.150000", "160117.640000", "160119.130000", "160120.620000", "160122.110000", "160123.600000", "160125.090000", "160126.580000", "160128.070000", "160129.560000", "160131.050000", "160132.540000", "160134.030000", "160135.520000", "160137.010000", "160138.500000", "160139.990000", "160141.480000", "160142.970000", "160144.460000", "160145.950000", "160147.440000", "160148.930000", "160150.420000", "160151.910000", "160153.400000", "160154.890000", "160156.380000", "160157.870000", "160159.360000", "160200.850000", "160202.340000", "160203.830000", "160205.320000", "160206.810000", "160208.300000", "160209.790000", "160211.280000", "160212.770000", "160214.260000", "160215.750000", "160217.240000", "160218.730000", "160220.220000", "160221.710000", "160223.200000", "160224.690000", "160226.180000", "160227.670000", "160229.160000", "160230.650000", "160232.140000", "160233.630000", "160235.120000", "160236.610000", "160238.100000", "160239.590000", "160241.080000", "160242.570000", "160244.060000", "160245.550000", "160247.040000", "160248.530000", "160250.020000", "160251.510000", "160253.000000", "160254.490000", "160255.980000", "160257.470000", "160258.960000", "160300.450000", "160301.940000", "160303.430000", "160304.920000", "160306.410000", "160307.900000", "160309.390000", "160310.880000", "160312.370000", "160313.860000", "160315.350000", "160316.840000", "160318.330000", "160319.820000", "160321.310000", "160322.800000", "160324.290000", "160325.780000", "160327.270000", "160328.760000", "160330.250000", "160331.740000", "160333.230000", "160334.720000", "160336.210000"],
      "ContentTime": ["155946.914000", "155946.917000", "155946.919000", "155946.922000", "155946.924000", "155946.927000", "155946.929000", "155946.932000", "155946.934000", "155946.937000", "155946.939000", "155946.942000", "155946.944000", "155946.947000", "155946.949000", "155946.952000", "155946.954000", "155946.957000", "155946.959000", "155946.962000", "155946.964000", "155946.976000", "155946.979000", "160006.856000", "160006.858000", "160006.861000", "160006.863000", "160006.866000", "160006.868000", "160006.875000", "160006.877000", "160006.880000", "160006.882000", "160006.885000", "160006.887000", "160006.890000", "160006.892000", "160006.895000", "160006.897000", "160006.900000", "160006.902000", "160006.905000", "160006.907000", "160027.025000", "160027.028000", "160027.031000", "160027.033000", "160027.036000", "160027.038000", "160027.041000", "160027.043000", "160027.045000", "160027.048000", "160027.051000", "160027.053000", "160027.055000", "160027.058000", "160027.061000", "160027.068000", "160027.070000", "160027.073000", "160027.075000", "160027.078000", "160046.899000", "160046.902000", "160046.905000", "160046.907000", "160046.910000", "160046.912000", "160046.914000", "160046.917000", "160046.920000", "160046.922000", "160046.925000", "160046.927000", "160046.930000", "160046.943000", "160046.945000", "160046.948000", "160046.950000", "160046.953000", "160046.955000", "160046.958000", "160046.960000", "160106.990000", "160106.993000", "160106.995000", "160106.998000", "160107.001000", "160107.004000", "160107.006000", "160107.009000", "160107.011000", "160107.014000", "160107.016000", "160107.019000", "160107.021000", "160107.024000", "160107.026000", "160107.029000", "160107.031000", "160107.033000", "160107.036000", "160107.038000", "160146.867000", "160146.869000", "160146.872000", "160146.874000", "160146.877000", "160146.879000", "160146.889000", "160146.891000", "160146.894000", "160146.896000", "160146.899000", "160146.901000", "160146.903000", "160146.906000", "160146.908000", "160146.911000", "160146.913000", "160146.916000", "160146.918000", "160146.921000", "160146.923000", "160146.926000", "160146.928000", "160146.931000", "160146.933000", "160146.936000", "160146.938000", "160146.941000", "160226.853000", "160226.855000", "160226.858000", "160226.860000", "160226.863000", "160226.865000", "160226.868000", "160226.870000", "160226.873000", "160226.876000", "160226.878000", "160226.881000", "160226.883000", "160226.886000", "160226.888000", "160226.891000", "160226.893000", "160226.896000", "160226.898000", "160226.901000", "160226.903000", "160226.906000", "160226.908000", "160226.911000", "160226.913000", "160226.916000", "160306.860000", "160306.863000", "160306.865000", "160306.868000", "160306.871000", "160306.873000", "160306.875000", "160306.878000", "160306.880000", "160306.883000", "160306.885000", "160306.888000", "160306.890000", "160306.893000", "160306.895000", "160306.898000", "160306.900000", "160306.903000", "160306.905000", "160306.908000", "160306.910000", "160306.913000", "160306.915000", "160306.918000", "160306.920000", "160306.924000", "160306.927000", "160339.202000", "160339.205000", "160339.208000", "160339.210000", "160339.213000", "160339.216000", "160339.218000", "160339.221000", "160339.223000", "160339.226000", "160339.228000", "160339.231000", "160339.233000", "160339.236000", "160339.238000", "160339.241000", "160339.243000", "160339.246000", "160339.248000", "160339.251000", "160339.264000", "160339.267000"],
      "InstanceCreationTime": ["155946.914000", "155946.917000", "155946.919000", "155946.922000", "155946.924000", "155946.927000", "155946.929000", "155946.932000", "155946.934000", "155946.937000", "155946.939000", "155946.942000", "155946.944000", "155946.947000", "155946.949000", "155946.952000", "155946.954000", "155946.957000", "155946.959000", "155946.962000", "155946.964000", "155946.976000", "155946.979000", "160006.856000", "160006.858000", "160006.861000", "160006.863000", "160006.866000", "160006.868000", "160006.875000", "160006.877000", "160006.880000", "160006.882000", "160006.885000", "160006.887000", "160006.890000", "160006.892000", "160006.895000", "160006.897000", "160006.900000", "160006.902000", "160006.905000", "160006.907000", "160027.025000", "160027.028000", "160027.031000", "160027.033000", "160027.036000", "160027.038000", "160027.041000", "160027.043000", "160027.045000", "160027.048000", "160027.051000", "160027.053000", "160027.055000", "160027.058000", "160027.061000", "160027.068000", "160027.070000", "160027.073000", "160027.075000", "160027.078000", "160046.899000", "160046.902000", "160046.905000", "160046.907000", "160046.910000", "160046.912000", "160046.914000", "160046.917000", "160046.920000", "160046.922000", "160046.925000", "160046.927000", "160046.930000", "160046.943000", "160046.945000", "160046.948000", "160046.950000", "160046.953000", "160046.955000", "160046.958000", "160046.960000", "160106.990000", "160106.993000", "160106.995000", "160106.998000", "160107.001000", "160107.004000", "160107.006000", "160107.009000", "160107.011000", "160107.014000", "160107.016000", "160107.019000", "160107.021000", "160107.024000", "160107.026000", "160107.029000", "160107.031000", "160107.033000", "160107.036000", "160107.038000", "160146.867000", "160146.869000", "160146.872000", "160146.874000", "160146.877000", "160146.879000", "160146.889000", "160146.891000", "160146.894000", "160146.896000", "160146.899000", "160146.901000", "160146.903000", "160146.906000", "160146.908000", "160146.911000", "160146.913000", "160146.916000", "160146.918000", "160146.921000", "160146.923000", "160146.926000", "160146.928000", "160146.931000", "160146.933000", "160146.936000", "160146.938000", "160146.941000", "160226.853000", "160226.855000", "160226.858000", "160226.860000", "160226.863000", "160226.865000", "160226.868000", "160226.870000", "160226.873000", "160226.876000", "160226.878000", "160226.881000", "160226.883000", "160226.886000", "160226.888000", "160226.891000", "160226.893000", "160226.896000", "160226.898000", "160226.901000", "160226.903000", "160226.906000", "160226.908000", "160226.911000", "160226.913000", "160226.916000", "160306.860000", "160306.863000", "160306.865000", "160306.868000", "160306.871000", "160306.873000", "160306.875000", "160306.878000", "160306.880000", "160306.883000", "160306.885000", "160306.888000", "160306.890000", "160306.893000", "160306.895000", "160306.898000", "160306.900000", "160306.903000", "160306.905000", "160306.908000", "160306.910000", "160306.913000", "160306.915000", "160306.918000", "160306.920000", "160306.924000", "160306.927000", "160339.202000", "160339.205000", "160339.208000", "160339.210000", "160339.213000", "160339.216000", "160339.218000", "160339.221000", "160339.223000", "160339.226000", "160339.228000", "160339.231000", "160339.233000", "160339.236000", "160339.238000", "160339.241000", "160339.243000", "160339.246000", "160339.248000", "160339.251000", "160339.264000", "160339.267000"],
      "InstanceNumber": [1, 2, 3, 4, 5, 6, 7, 8, 9, 10, 11, 12, 13, 14, 15, 16, 17, 18, 19, 20, 21, 22, 23, 24, 25, 26, 27, 28, 29, 30, 31, 32, 33, 34, 35, 36, 37, 38, 39, 40, 41, 42, 43, 44, 45, 46, 47, 48, 49, 50, 51, 52, 53, 54, 55, 56, 57, 58, 59, 60, 61, 62, 63, 64, 65, 66, 67, 68, 69, 70, 71, 72, 73, 74, 75, 76, 77, 78, 79, 80, 81, 82, 83, 84, 85, 86, 87, 88, 89, 90, 91, 92, 93, 94, 95, 96, 97, 98, 99, 100, 101, 102, 103, 104, 105, 106, 107, 108, 109, 110, 111, 112, 113, 114, 115, 116, 117, 118, 119, 120, 121, 122, 123, 124, 125, 126, 127, 128, 129, 130, 131, 132, 133, 134, 135, 136, 137, 138, 139, 140, 141, 142, 143, 144, 145, 146, 147, 148, 149, 150, 151, 152, 153, 154, 155, 156, 157, 158, 159, 160, 161, 162, 163, 164, 165, 166, 167, 168, 169, 170, 171, 172, 173, 174, 175, 176, 177, 178, 179, 180, 181, 182, 183, 184, 185, 186, 187, 188, 189, 190, 191, 192, 193, 194, 195, 196, 197, 198, 199, 200, 201, 202, 203, 204, 205, 206, 207],
      "WindowCenter": [4852.0, 4856.0, 4904.0, 4858.0, 4854.0, 4832.0, 4830.0, 4856.0, 4852.0, 4852.0, 4856.0, 4854.0, 4852.0, 4852.0, 4854.0, 4854.0, 4854.0, 4852.0, 4854.0, 4852.0, 4854.0, 4854.0, 4878.0, 4850.0, 4854.0, 4854.0, 4854.0, 4854.0, 4854.0, 4854.0, 4850.0, 4856.0, 4850.0, 4854.0, 4854.0, 4878.0, 4904.0, 4884.0, 4830.0, 4832.0, 4852.0, 4830.0, 4852.0, 4856.0, 4856.0, 4884.0, 4852.0, 4878.0, 4854.0, 4852.0, 4828.0, 4858.0, 4900.0, 4898.0, 4906.0, 4854.0, 4854.0, 4852.0, 4828.0, 4852.0, 4878.0, 4876.0, 4854.0, 4880.0, 4876.0, 4854.0, 4856.0, 4854.0, 4830.0, 4856.0, 4882.0, 4856.0, 4856.0, 4878.0, 4854.0, 4854.0, 4856.0, 4856.0, 4854.0, 4878.0, 4880.0, 4860.0, 4854.0, 4854.0, 4854.0, 4854.0, 4852.0, 4858.0, 4856.0, 4856.0, 4856.0, 4854.0, 4852.0, 4878.0, 4852.0, 4850.0, 4854.0, 4876.0, 4854.0, 4860.0, 4880.0, 4856.0, 4852.0, 4856.0, 4858.0, 4852.0, 4878.0, 4854.0, 4852.0, 4856.0, 4878.0, 4852.0, 4854.0, 4876.0, 4878.0, 4878.0, 4854.0, 4882.0, 4864.0, 4904.0, 4880.0, 4834.0, 4828.0, 4828.0, 4828.0, 4880.0, 4878.0, 4882.0, 4880.0, 4900.0, 4882.0, 4856.0, 4860.0, 4832.0, 4832.0, 4854.0, 4854.0, 4880.0, 4882.0, 4880.0, 4880.0, 4886.0, 4908.0, 4884.0, 4856.0, 4876.0, 4856.0, 4852.0, 4856.0, 4852.0, 4852.0, 4878.0, 4878.0, 4854.0, 4854.0, 4852.0, 4876.0, 4854.0, 4856.0, 4876.0, 4878.0, 4856.0, 4880.0, 4856.0, 4884.0, 4880.0, 4856.0, 4856.0, 4884.0, 4908.0, 4906.0, 4878.0, 4908.0, 4882.0, 4864.0, 4858.0, 4832.0, 4882.0, 4904.0, 4904.0, 4880.0, 4884.0, 4880.0, 4852.0, 4856.0, 4882.0, 4858.0, 4882.0, 4880.0, 4880.0, 4882.0, 4882.0, 4880.0, 4904.0, 4908.0, 4934.0, 4912.0, 4908.0, 4934.0, 4932.0, 4908.0, 4880.0, 4880.0, 4904.0, 4856.0, 4852.0, 4834.0],
      "WindowWidth": [18618.0, 18628.0, 18708.0, 18626.0, 18614.0, 18586.0, 18588.0, 18622.0, 18618.0, 18624.0, 18624.0, 18628.0, 18616.0, 18620.0, 18614.0, 18626.0, 18616.0, 18618.0, 18620.0, 18612.0, 18624.0, 18620.0, 18656.0, 18616.0, 18620.0, 18622.0, 18622.0, 18626.0, 18614.0, 18618.0, 18612.0, 18624.0, 18618.0, 18618.0, 18622.0, 18660.0, 18710.0, 18668.0, 18578.0, 18588.0, 18618.0, 18588.0, 18622.0, 18628.0, 18626.0, 18662.0, 18618.0, 18658.0, 18618.0, 18620.0, 18582.0, 18622.0, 18708.0, 18724.0, 18702.0, 18614.0, 18620.0, 18614.0, 18586.0, 18614.0, 18662.0, 18666.0, 18628.0, 18670.0, 18654.0, 18624.0, 18624.0, 18622.0, 18588.0, 18622.0, 18664.0, 18618.0, 18616.0, 18656.0, 18618.0, 18624.0, 18616.0, 18622.0, 18616.0, 18664.0, 18660.0, 18624.0, 18624.0, 18614.0, 18624.0, 18614.0, 18614.0, 18620.0, 18620.0, 18622.0, 18626.0, 18620.0, 18616.0, 18654.0, 18616.0, 18614.0, 18618.0, 18656.0, 18616.0, 18620.0, 18664.0, 18626.0, 18618.0, 18620.0, 18626.0, 18616.0, 18656.0, 18614.0, 18618.0, 18624.0, 18652.0, 18612.0, 18626.0, 18660.0, 18656.0, 18654.0, 18614.0, 18660.0, 18688.0, 18724.0, 18650.0, 18586.0, 18584.0, 18588.0, 18578.0, 18664.0, 18668.0, 18666.0, 18672.0, 18710.0, 18662.0, 18620.0, 18622.0, 18580.0, 18580.0, 18616.0, 18616.0, 18652.0, 18656.0, 18656.0, 18652.0, 18658.0, 18704.0, 18660.0, 18622.0, 18662.0, 18624.0, 18622.0, 18630.0, 18622.0, 18616.0, 18666.0, 18662.0, 18628.0, 18624.0, 18630.0, 18660.0, 18626.0, 18626.0, 18660.0, 18660.0, 18630.0, 18662.0, 18618.0, 18664.0, 18662.0, 18614.0, 18618.0, 18664.0, 18716.0, 18694.0, 18664.0, 18704.0, 18656.0, 18626.0, 18622.0, 18590.0, 18666.0, 18716.0, 18700.0, 18654.0, 18670.0, 18648.0, 18608.0, 18612.0, 18650.0, 18614.0, 18662.0, 18652.0, 18656.0, 18658.0, 18662.0, 18652.0, 18694.0, 18724.0, 18744.0, 18700.0, 18698.0, 18746.0, 18744.0, 18710.0, 18670.0, 18680.0, 18698.0, 18620.0, 18618.0, 18592.0]
    },
    "slices": {}
  }
}