{
  "AcquisitionMatrixPE": 104,
  "AcquisitionNumber": 1,
  "AcquisitionTime": "16:05:18.827500",
  "B0FieldSource": "sub-06_ses-007_task-gamepad_run-02_part-mag_bold.nii.gz",
  "BandwidthPerPixelPhaseEncode": 17.17,
  "BaseResolution": 104,
  "BodyPartExamined": "BRAIN",
  "CoilCombinationMethod": "Sum of Squares",
  "ConsistencyInfo": "N4_VE11C_LATEST_20160120",
  "ConversionSoftware": "dcm2niix",
  "ConversionSoftwareVersion": "v1.0.20211006",
  "DerivedVendorReportedEchoSpacing": 0.000560011,
  "DeviceSerialNumber": "167006",
  "DwellTime": 2.1e-06,
  "EchoTime": 0.037,
  "EchoTrainLength": 104,
  "EffectiveEchoSpacing": 0.000560011,
  "FlipAngle": 52,
  "HeudiconvVersion": "0.10.0",
  "ImageComments": "Unaliased MB4/PE3/LB",
  "ImageOrientationPatientDICOM": [0.998888, -0.0451911, 0.0134394, 0.0471063, 0.944752, -0.324384],
  "ImageOrientationText": "Tra>Cor(-18.9)>Sag(-0.1)",
  "ImageType": [
    "ORIGINAL",
    "PRIMARY",
    "M",
    "MB",
    "ND",
    "MOSAIC"
],
  "ImagingFrequency": 123.259,
  "InPlanePhaseEncodingDirectionDICOM": "COL",
  "InstitutionAddress": "Chemin Queen-Mary 4565,Montreal,District,CA,H3W 1W5",
  "InstitutionName": "IUGM",
  "InstitutionalDepartmentName": "Department",
  "MRAcquisitionType": "2D",
  "MagneticFieldStrength": 3,
  "Manufacturer": "Siemens",
  "ManufacturersModelName": "Prisma_fit",
  "MatrixCoilMode": "SENSE",
  "Modality": "MR",
  "MultibandAccelerationFactor": 4,
  "PartialFourier": 1,
  "PatientPosition": "HFS",
  "PercentPhaseFOV": 100,
  "PercentSampling": 100,
  "PhaseEncodingDirection": "j",
  "PhaseEncodingSteps": 104,
  "PhaseResolution": 1,
  "PixelBandwidth": 2290,
  "ProcedureStepDescription": "games^gamepad",
  "ProtocolName": "func_task-gamepad_run-2",
  "PulseSequenceDetails": "%CustomerSeq%\\cmrr_mbep2d_bold",
  "ReceiveCoilActiveElements": "HC1-7;NC1,2",
  "ReceiveCoilName": "HeadNeck_64",
  "ReconMatrixPE": 104,
  "RepetitionTime": 1.49,
  "SAR": 0.0375765,
  "ScanOptions": "FS",
  "ScanningSequence": "EP",
  "SequenceName": "epfid2d1_104",
  "SequenceVariant": "SK\\SS",
  "SeriesDescription": "func_task-gamepad_run-2",
  "SeriesNumber": 13,
  "ShimSetting": [627, -7251, -8826, 583, 3, -164, -60, -17],
  "SliceThickness": 2,
  "SliceTiming": [0, 0.7825, 0.0975, 0.88, 0.195, 0.98, 0.2925, 1.0775, 0.39, 1.175, 0.49, 1.2725, 0.5875, 1.37, 0.685, 0, 0.7825, 0.0975, 0.88, 0.195, 0.98, 0.2925, 1.0775, 0.39, 1.175, 0.49, 1.2725, 0.5875, 1.37, 0.685, 0, 0.7825, 0.0975, 0.88, 0.195, 0.98, 0.2925, 1.0775, 0.39, 1.175, 0.49, 1.2725, 0.5875, 1.37, 0.685, 0, 0.7825, 0.0975, 0.88, 0.195, 0.98, 0.2925, 1.0775, 0.39, 1.175, 0.49, 1.2725, 0.5875, 1.37, 0.685],
  "SoftwareVersions": "syngo MR E11",
  "SpacingBetweenSlices": 2,
  "StationName": "MRC35049",
  "TaskName": "gamepad",
  "TotalReadoutTime": 0.0576811,
  "TxRefAmp": 235.582,
  "WipMemBlock": "35620f95-30ec-4f25-8fd5-fe343b752500||Sequence: R016 ve11c/master r/e634e98; Dec 19 2017 11:00:25 by eja",
  "dcmmeta_affine": [
    [-1.997775912284851, 0.09421264380216599, -0.003924747928977013, 102.97236633300781],
    [0.09038227796554565, 1.889503836631775, -0.6493121981620789, -70.23656463623047],
    [0.02687879651784897, 0.6487674713134766, 1.891660213470459, -64.2536849975586],
    [0.0, 0.0, 0.0, 1.0]
],
  "dcmmeta_reorient_transform": [
    [0.0, -1.0, 0.0, 103.0],
    [1.0, 0.0, 0.0, 0.0],
    [0.0, 0.0, 1.0, 0.0],
    [0.0, 0.0, 0.0, 1.0]
],
  "dcmmeta_shape": [104, 104, 60, 207],
  "dcmmeta_slice_dim": 2,
  "dcmmeta_version": 0.6,
  "global": {
    "const": {
      "AcquisitionMatrix": [104, 0, 0, 104],
      "AngioFlag": "N",
      "BitsAllocated": 16,
      "BitsStored": 16,
      "BodyPartExamined": "BRAIN",
      "Columns": 832,
      "EchoNumbers": 1,
      "EchoTime": 37.0,
      "EchoTrainLength": 104,
      "FlipAngle": 52.0,
      "HighBit": 15,
      "ImageOrientationPatient": [0.99888795338395, -0.0451911403066, 0.01343939813465, 0.0471063230662, 0.9447519163334, -0.3243837402083],
      "ImagePositionPatient": [-874.16010080331, -779.26257812071, 228.93684609348],
      "ImageType": [
        "ORIGINAL",
        "PRIMARY",
        "M",
        "MB",
        "ND",
        "MOSAIC"
],
      "ImagedNucleus": "1H",
      "ImagingFrequency": 123.258885,
      "InPlanePhaseEncodingDirection": "COL",
      "MRAcquisitionType": "2D",
      "MagneticFieldStrength": 3.0,
      "Manufacturer": "SIEMENS",
      "ManufacturerModelName": "Prisma_fit",
      "Modality": "MR",
      "NumberOfAverages": 1.0,
      "NumberOfPhaseEncodingSteps": 104,
      "PercentPhaseFieldOfView": 100.0,
      "PercentSampling": 100.0,
      "PerformedProcedureStepStartTime": "155445.384000",
      "PhotometricInterpretation": "MONOCHROME2",
      "PixelBandwidth": 2290.0,
      "PixelRepresentation": 0,
      "PixelSpacing": [2.0, 2.0],
      "ProtocolName": "func_task-gamepad_run-2",
      "RepetitionTime": 1490.0,
      "Rows": 832,
      "SAR": 0.03757652994951,
      "SamplesPerPixel": 1,
      "ScanOptions": "FS",
      "ScanningSequence": "EP",
      "SequenceName": "epfid2d1_104",
      "SequenceVariant": [
        "SK",
        "SS"
],
      "SeriesDescription": "func_task-gamepad_run-2",
      "SeriesNumber": 13,
      "SeriesTime": "160613.223000",
      "SliceLocation": -38.172412245698,
      "SliceThickness": 2.0,
      "SmallestImagePixelValue": 0,
      "SoftwareVersions": "syngo MR E11",
      "SpacingBetweenSlices": 1.9999999806115,
      "SpecificCharacterSet": "ISO_IR 100",
      "StudyID": "1",
      "StudyTime": "155445.296000",
      "TransmitCoilName": "Body",
      "VariableFlipAngleFlag": "N",
      "WindowCenterWidthExplanation": "Algo1",
      "dBdt": 0.0},
    "slices": {}
  },
  "time": {
    "samples": {
      "AcquisitionNumber": [1, 2, 3, 4, 5, 6, 7, 8, 9, 10, 11, 12, 13, 14, 15, 16, 17, 18, 19, 20, 21, 22, 23, 24, 25, 26, 27, 28, 29, 30, 31, 32, 33, 34, 35, 36, 37, 38, 39, 40, 41, 42, 43, 44, 45, 46, 47, 48, 49, 50, 51, 52, 53, 54, 55, 56, 57, 58, 59, 60, 61, 62, 63, 64, 65, 66, 67, 68, 69, 70, 71, 72, 73, 74, 75, 76, 77, 78, 79, 80, 81, 82, 83, 84, 85, 86, 87, 88, 89, 90, 91, 92, 93, 94, 95, 96, 97, 98, 99, 100, 101, 102, 103, 104, 105, 106, 107, 108, 109, 110, 111, 112, 113, 114, 115, 116, 117, 118, 119, 120, 121, 122, 123, 124, 125, 126, 127, 128, 129, 130, 131, 132, 133, 134, 135, 136, 137, 138, 139, 140, 141, 142, 143, 144, 145, 146, 147, 148, 149, 150, 151, 152, 153, 154, 155, 156, 157, 158, 159, 160, 161, 162, 163, 164, 165, 166, 167, 168, 169, 170, 171, 172, 173, 174, 175, 176, 177, 178, 179, 180, 181, 182, 183, 184, 185, 186, 187, 188, 189, 190, 191, 192, 193, 194, 195, 196, 197, 198, 199, 200, 201, 202, 203, 204, 205, 206, 207],
      "AcquisitionTime": ["160518.827500", "160520.317500", "160521.807500", "160523.297500", "160524.787500", "160526.277500", "160527.767500", "160529.257500", "160530.747500", "160532.237500", "160533.727500", "160535.217500", "160536.707500", "160538.197500", "160539.687500", "160541.177500", "160542.667500", "160544.157500", "160545.647500", "160547.137500", "160548.627500", "160550.117500", "160551.607500", "160553.097500", "160554.587500", "160556.077500", "160557.567500", "160559.057500", "160600.547500", "160602.037500", "160603.527500", "160605.017500", "160606.507500", "160607.997500", "160609.487500", "160610.977500", "160612.467500", "160613.957500", "160615.447500", "160616.937500", "160618.427500", "160619.917500", "160621.407500", "160622.897500", "160624.387500", "160625.877500", "160627.367500", "160628.857500", "160630.347500", "160631.837500", "160633.327500", "160634.817500", "160636.307500", "160637.797500", "160639.287500", "160640.777500", "160642.267500", "160643.757500", "160645.247500", "160646.737500", "160648.227500", "160649.717500", "160651.207500", "160652.697500", "160654.187500", "160655.677500", "160657.167500", "160658.657500", "160700.147500", "160701.637500", "160703.127500", "160704.617500", "160706.107500", "160707.597500", "160709.087500", "160710.577500", "160712.067500", "160713.557500", "160715.047500", "160716.537500", "160718.027500", "160719.517500", "160721.007500", "160722.497500", "160723.987500", "160725.477500", "160726.967500", "160728.457500", "160729.947500", "160731.437500", "160732.927500", "160734.417500", "160735.907500", "160737.397500", "160738.887500", "160740.377500", "160741.867500", "160743.357500", "160744.847500", "160746.337500", "160747.827500", "160749.317500", "160750.807500", "160752.297500", "160753.787500", "160755.277500", "160756.767500", "160758.257500", "160759.747500", "160801.237500", "160802.727500", "160804.217500", "160805.707500", "160807.197500", "160808.687500", "160810.177500", "160811.667500", "160813.157500", "160814.647500", "160816.137500", "160817.627500", "160819.117500", "160820.607500", "160822.097500", "160823.587500", "160825.077500", "160826.567500", "160828.057500", "160829.547500", "160831.037500", "160832.527500", "160834.017500", "160835.507500", "160836.997500", "160838.487500", "160839.977500", "160841.467500", "160842.957500", "160844.447500", "160845.937500", "160847.427500", "160848.917500", "160850.407500", "160851.897500", "160853.387500", "160854.877500", "160856.367500", "160857.857500", "160859.347500", "160900.837500", "160902.327500", "160903.817500", "160905.307500", "160906.797500", "160908.287500", "160909.777500", "160911.267500", "160912.757500", "160914.247500", "160915.737500", "160917.227500", "160918.717500", "160920.207500", "160921.697500", "160923.187500", "160924.677500", "160926.167500", "160927.657500", "160929.147500", "160930.637500", "160932.127500", "160933.617500", "160935.107500", "160936.597500", "160938.087500", "160939.577500", "160941.067500", "160942.557500", "160944.047500", "160945.537500", "160947.027500", "160948.517500", "160950.007500", "160951.497500", "160952.987500", "160954.477500", "160955.967500", "160957.457500", "160958.947500", "161000.437500", "161001.927500", "161003.417500", "161004.907500", "161006.397500", "161007.887500", "161009.377500", "161010.867500", "161012.357500", "161013.847500", "161015.337500", "161016.827500", "161018.317500", "161019.807500", "161021.297500", "161022.787500", "161024.277500", "161025.767500"],
      "ContentTime": ["160613.226000", "160613.230000", "160633.186000", "160633.190000", "160633.193000", "160633.196000", "160633.200000", "160633.203000", "160633.206000", "160633.209000", "160633.213000", "160633.216000", "160633.219000", "160633.223000", "160633.226000", "160633.229000", "160633.233000", "160633.236000", "160633.239000", "160633.243000", "160633.246000", "160633.249000", "160653.186000", "160653.190000", "160653.193000", "160653.196000", "160653.200000", "160653.203000", "160653.206000", "160653.209000", "160653.213000", "160653.216000", "160653.219000", "160653.223000", "160653.226000", "160653.229000", "160653.232000", "160653.236000", "160653.239000", "160653.242000", "160653.245000", "160653.249000", "160713.186000", "160713.190000", "160713.194000", "160713.197000", "160713.200000", "160713.204000", "160713.207000", "160713.210000", "160713.213000", "160713.217000", "160713.220000", "160713.223000", "160713.227000", "160713.230000", "160713.233000", "160713.236000", "160713.240000", "160713.243000", "160713.246000", "160713.250000", "160713.253000", "160733.186000", "160733.190000", "160733.193000", "160733.196000", "160733.200000", "160733.203000", "160733.206000", "160733.209000", "160733.213000", "160733.216000", "160733.219000", "160733.223000", "160733.226000", "160733.229000", "160733.232000", "160733.236000", "160733.239000", "160733.242000", "160733.260000", "160733.263000", "160753.185000", "160753.189000", "160753.192000", "160753.195000", "160753.199000", "160753.202000", "160753.205000", "160753.208000", "160753.212000", "160753.215000", "160753.218000", "160753.222000", "160753.225000", "160753.228000", "160753.232000", "160753.235000", "160753.238000", "160753.241000", "160753.245000", "160753.248000", "160833.186000", "160833.190000", "160833.193000", "160833.197000", "160833.200000", "160833.203000", "160833.206000", "160833.210000", "160833.213000", "160833.216000", "160833.220000", "160833.223000", "160833.226000", "160833.230000", "160833.233000", "160833.236000", "160833.239000", "160833.243000", "160833.246000", "160833.249000", "160833.252000", "160833.256000", "160833.259000", "160833.262000", "160833.266000", "160833.269000", "160833.273000", "160913.186000", "160913.190000", "160913.199000", "160913.202000", "160913.205000", "160913.209000", "160913.212000", "160913.215000", "160913.219000", "160913.222000", "160913.226000", "160913.229000", "160913.232000", "160913.235000", "160913.239000", "160913.242000", "160913.246000", "160913.249000", "160913.252000", "160913.256000", "160913.259000", "160913.262000", "160913.266000", "160913.269000", "160913.273000", "160913.276000", "160913.279000", "160953.186000", "160953.190000", "160953.193000", "160953.197000", "160953.200000", "160953.204000", "160953.207000", "160953.210000", "160953.214000", "160953.217000", "160953.220000", "160953.224000", "160953.227000", "160953.230000", "160953.234000", "160953.237000", "160953.240000", "160953.243000", "160953.247000", "160953.250000", "160953.253000", "160953.257000", "160953.260000", "160953.263000", "160953.267000", "160953.284000", "161027.506000", "161027.509000", "161027.513000", "161027.516000", "161027.519000", "161027.523000", "161027.526000", "161027.529000", "161027.533000", "161027.536000", "161027.539000", "161027.543000", "161027.546000", "161027.549000", "161027.552000", "161027.556000", "161027.559000", "161027.562000", "161027.566000", "161027.569000", "161027.572000", "161027.576000", "161027.579000", "161027.582000"],
      "InstanceCreationTime": ["160613.226000", "160613.230000", "160633.186000", "160633.190000", "160633.193000", "160633.196000", "160633.200000", "160633.203000", "160633.206000", "160633.209000", "160633.213000", "160633.216000", "160633.219000", "160633.223000", "160633.226000", "160633.229000", "160633.233000", "160633.236000", "160633.239000", "160633.243000", "160633.246000", "160633.249000", "160653.186000", "160653.190000", "160653.193000", "160653.196000", "160653.200000", "160653.203000", "160653.206000", "160653.209000", "160653.213000", "160653.216000", "160653.219000", "160653.223000", "160653.226000", "160653.229000", "160653.232000", "160653.236000", "160653.239000", "160653.242000", "160653.245000", "160653.249000", "160713.186000", "160713.190000", "160713.194000", "160713.197000", "160713.200000", "160713.204000", "160713.207000", "160713.210000", "160713.213000", "160713.217000", "160713.220000", "160713.223000", "160713.227000", "160713.230000", "160713.233000", "160713.236000", "160713.240000", "160713.243000", "160713.246000", "160713.250000", "160713.253000", "160733.186000", "160733.190000", "160733.193000", "160733.196000", "160733.200000", "160733.203000", "160733.206000", "160733.209000", "160733.213000", "160733.216000", "160733.219000", "160733.223000", "160733.226000", "160733.229000", "160733.232000", "160733.236000", "160733.239000", "160733.242000", "160733.260000", "160733.263000", "160753.185000", "160753.189000", "160753.192000", "160753.195000", "160753.199000", "160753.202000", "160753.205000", "160753.208000", "160753.212000", "160753.215000", "160753.218000", "160753.222000", "160753.225000", "160753.228000", "160753.232000", "160753.235000", "160753.238000", "160753.241000", "160753.245000", "160753.248000", "160833.186000", "160833.190000", "160833.193000", "160833.197000", "160833.200000", "160833.203000", "160833.206000", "160833.210000", "160833.213000", "160833.216000", "160833.220000", "160833.223000", "160833.226000", "160833.230000", "160833.233000", "160833.236000", "160833.239000", "160833.243000", "160833.246000", "160833.249000", "160833.252000", "160833.256000", "160833.259000", "160833.262000", "160833.266000", "160833.269000", "160833.273000", "160913.186000", "160913.190000", "160913.199000", "160913.202000", "160913.205000", "160913.209000", "160913.212000", "160913.215000", "160913.219000", "160913.222000", "160913.226000", "160913.229000", "160913.232000", "160913.235000", "160913.239000", "160913.242000", "160913.246000", "160913.249000", "160913.252000", "160913.256000", "160913.259000", "160913.262000", "160913.266000", "160913.269000", "160913.273000", "160913.276000", "160913.279000", "160953.186000", "160953.190000", "160953.193000", "160953.197000", "160953.200000", "160953.204000", "160953.207000", "160953.210000", "160953.214000", "160953.217000", "160953.220000", "160953.224000", "160953.227000", "160953.230000", "160953.234000", "160953.237000", "160953.240000", "160953.243000", "160953.247000", "160953.250000", "160953.253000", "160953.257000", "160953.260000", "160953.263000", "160953.267000", "160953.284000", "161027.506000", "161027.509000", "161027.513000", "161027.516000", "161027.519000", "161027.523000", "161027.526000", "161027.529000", "161027.533000", "161027.536000", "161027.539000", "161027.543000", "161027.546000", "161027.549000", "161027.552000", "161027.556000", "161027.559000", "161027.562000", "161027.566000", "161027.569000", "161027.572000", "161027.576000", "161027.579000", "161027.582000"],
      "InstanceNumber": [1, 2, 3, 4, 5, 6, 7, 8, 9, 10, 11, 12, 13, 14, 15, 16, 17, 18, 19, 20, 21, 22, 23, 24, 25, 26, 27, 28, 29, 30, 31, 32, 33, 34, 35, 36, 37, 38, 39, 40, 41, 42, 43, 44, 45, 46, 47, 48, 49, 50, 51, 52, 53, 54, 55, 56, 57, 58, 59, 60, 61, 62, 63, 64, 65, 66, 67, 68, 69, 70, 71, 72, 73, 74, 75, 76, 77, 78, 79, 80, 81, 82, 83, 84, 85, 86, 87, 88, 89, 90, 91, 92, 93, 94, 95, 96, 97, 98, 99, 100, 101, 102, 103, 104, 105, 106, 107, 108, 109, 110, 111, 112, 113, 114, 115, 116, 117, 118, 119, 120, 121, 122, 123, 124, 125, 126, 127, 128, 129, 130, 131, 132, 133, 134, 135, 136, 137, 138, 139, 140, 141, 142, 143, 144, 145, 146, 147, 148, 149, 150, 151, 152, 153, 154, 155, 156, 157, 158, 159, 160, 161, 162, 163, 164, 165, 166, 167, 168, 169, 170, 171, 172, 173, 174, 175, 176, 177, 178, 179, 180, 181, 182, 183, 184, 185, 186, 187, 188, 189, 190, 191, 192, 193, 194, 195, 196, 197, 198, 199, 200, 201, 202, 203, 204, 205, 206, 207],
      "LargestImagePixelValue": [43966, 42358, 41622, 40740, 41186, 40313, 39791, 40625, 39799, 40041, 40628, 40030, 40096, 39238, 39727, 39985, 39866, 40393, 40556, 39897, 40550, 40701, 40147, 40096, 40378, 39922, 40175, 39669, 40619, 40695, 40235, 40312, 40134, 40381, 40315, 40942, 40025, 40864, 40312, 40425, 40033, 40270, 40559, 40473, 40809, 40697, 40290, 39200, 39560, 39940, 39483, 40081, 40477, 40076, 40151, 39570, 39193, 39178, 39979, 40281, 39902, 39856, 40295, 39948, 39361, 39137, 39652, 39489, 39446, 39623, 39866, 39858, 39695, 39918, 40335, 40070, 40061, 40217, 40084, 39942, 39749, 39944, 39840, 39460, 40121, 39667, 39540, 39874, 40221, 39468, 39934, 40003, 39985, 40077, 40118, 39525, 40222, 39945, 39898, 40392, 39766, 39987, 39514, 40325, 39881, 40170, 40677, 40214, 40518, 40104, 40229, 40280, 39957, 40377, 39926, 40374, 39843, 39656, 40647, 40755, 40411, 40359, 39354, 40431, 39762, 39830, 40096, 39669, 40224, 40242, 40206, 40744, 40101, 39540, 39546, 39653, 39541, 39592, 40074, 40297, 40035, 40016, 40042, 40175, 39844, 40134, 40001, 40772, 40098, 39931, 40143, 40174, 39891, 40083, 40225, 39462, 39708, 39598, 39730, 39732, 39552, 39984, 39659, 39243, 39570, 39799, 39696, 40029, 39727, 39429, 39524, 39444, 39521, 39431, 39539, 39607, 39544, 39681, 39453, 39137, 39319, 39440, 39385, 39285, 39509, 39228, 39409, 39436, 39242, 39724, 40536, 39866, 39561, 39518, 39646, 39549, 39810, 39707, 39940, 39620, 39761, 39524, 39262, 39842, 39362, 39535, 39471],
      "WindowCenter": [10247.0, 10134.0, 10079.0, 10073.0, 10110.0, 10115.0, 10096.0, 10098.0, 10102.0, 10117.0, 10137.0, 10113.0, 10107.0, 10094.0, 10106.0, 10131.0, 10127.0, 10108.0, 10091.0, 10089.0, 10108.0, 10113.0, 10091.0, 10087.0, 10095.0, 10089.0, 10088.0, 10083.0, 10086.0, 10102.0, 10098.0, 10090.0, 10089.0, 10111.0, 10113.0, 10102.0, 10103.0, 10108.0, 10120.0, 10108.0, 10091.0, 10093.0, 10100.0, 10114.0, 10132.0, 10102.0, 10102.0, 10083.0, 10065.0, 10052.0, 10047.0, 10077.0, 10102.0, 10129.0, 10160.0, 10168.0, 10140.0, 10121.0, 10118.0, 10132.0, 10153.0, 10157.0, 10146.0, 10137.0, 10134.0, 10137.0, 10134.0, 10124.0, 10131.0, 10164.0, 10172.0, 10147.0, 10131.0, 10123.0, 10127.0, 10119.0, 10124.0, 10125.0, 10123.0, 10133.0, 10134.0, 10130.0, 10127.0, 10151.0, 10166.0, 10146.0, 10136.0, 10113.0, 10101.0, 10072.0, 10080.0, 10096.0, 10109.0, 10094.0, 10077.0, 10071.0, 10098.0, 10102.0, 10109.0, 10124.0, 10127.0, 10134.0, 10130.0, 10142.0, 10153.0, 10160.0, 10166.0, 10159.0, 10156.0, 10144.0, 10144.0, 10143.0, 10144.0, 10138.0, 10145.0, 10146.0, 10133.0, 10125.0, 10132.0, 10142.0, 10144.0, 10144.0, 10126.0, 10122.0, 10114.0, 10115.0, 10120.0, 10116.0, 10120.0, 10127.0, 10143.0, 10159.0, 10141.0, 10117.0, 10100.0, 10089.0, 10102.0, 10098.0, 10096.0, 10095.0, 10089.0, 10096.0, 10111.0, 10119.0, 10113.0, 10135.0, 10145.0, 10153.0, 10147.0, 10140.0, 10146.0, 10153.0, 10162.0, 10164.0, 10169.0, 10161.0, 10142.0, 10136.0, 10134.0, 10126.0, 10118.0, 10117.0, 10104.0, 10091.0, 10090.0, 10114.0, 10127.0, 10116.0, 10094.0, 10092.0, 10091.0, 10095.0, 10084.0, 10075.0, 10090.0, 10101.0, 10114.0, 10113.0, 10097.0, 10094.0, 10116.0, 10121.0, 10101.0, 10086.0, 10107.0, 10112.0, 10112.0, 10095.0, 10109.0, 10114.0, 10121.0, 10114.0, 10122.0, 10132.0, 10122.0, 10098.0, 10106.0, 10129.0, 10148.0, 10121.0, 10093.0, 10084.0, 10081.0, 10095.0, 10101.0, 10086.0, 10071.0],
      "WindowWidth": [22145.0, 21855.0, 21699.0, 21671.0, 21746.0, 21759.0, 21719.0, 21715.0, 21724.0, 21757.0, 21798.0, 21751.0, 21735.0, 21707.0, 21731.0, 21789.0, 21784.0, 21737.0, 21698.0, 21696.0, 21735.0, 21751.0, 21705.0, 21693.0, 21710.0, 21699.0, 21693.0, 21685.0, 21689.0, 21725.0, 21722.0, 21706.0, 21702.0, 21751.0, 21758.0, 21730.0, 21737.0, 21741.0, 21770.0, 21749.0, 21707.0, 21712.0, 21726.0, 21775.0, 21821.0, 21743.0, 21730.0, 21692.0, 21650.0, 21619.0, 21614.0, 21679.0, 21731.0, 21794.0, 21864.0, 21890.0, 21829.0, 21784.0, 21766.0, 21798.0, 21847.0, 21857.0, 21830.0, 21808.0, 21808.0, 21820.0, 21812.0, 21789.0, 21805.0, 21876.0, 21890.0, 21834.0, 21798.0, 21781.0, 21789.0, 21770.0, 21777.0, 21779.0, 21775.0, 21796.0, 21799.0, 21790.0, 21785.0, 21845.0, 21874.0, 21832.0, 21808.0, 21757.0, 21726.0, 21669.0, 21680.0, 21714.0, 21748.0, 21717.0, 21679.0, 21667.0, 21721.0, 21734.0, 21751.0, 21781.0, 21790.0, 21805.0, 21800.0, 21822.0, 21849.0, 21863.0, 21874.0, 21861.0, 21851.0, 21829.0, 21827.0, 21823.0, 21826.0, 21815.0, 21831.0, 21831.0, 21807.0, 21787.0, 21796.0, 21820.0, 21825.0, 21826.0, 21790.0, 21776.0, 21761.0, 21760.0, 21769.0, 21765.0, 21770.0, 21788.0, 21823.0, 21858.0, 21822.0, 21769.0, 21729.0, 21704.0, 21727.0, 21721.0, 21716.0, 21713.0, 21703.0, 21718.0, 21750.0, 21769.0, 21759.0, 21804.0, 21826.0, 21843.0, 21832.0, 21814.0, 21828.0, 21840.0, 21863.0, 21869.0, 21878.0, 21869.0, 21825.0, 21806.0, 21801.0, 21786.0, 21769.0, 21762.0, 21735.0, 21707.0, 21706.0, 21758.0, 21789.0, 21762.0, 21715.0, 21709.0, 21706.0, 21720.0, 21690.0, 21671.0, 21704.0, 21733.0, 21764.0, 21763.0, 21727.0, 21716.0, 21764.0, 21777.0, 21730.0, 21696.0, 21742.0, 21757.0, 21758.0, 21719.0, 21752.0, 21764.0, 21773.0, 21760.0, 21778.0, 21805.0, 21781.0, 21729.0, 21746.0, 21794.0, 21838.0, 21780.0, 21718.0, 21697.0, 21690.0, 21716.0, 21731.0, 21698.0, 21668.0]
    },
    "slices": {}
  }
}