{
  "AcquisitionMatrixPE": 104,
  "AcquisitionNumber": 1,
  "AcquisitionTime": "11:39:41.907500",
  "BandwidthPerPixelPhaseEncode": 17.17,
  "BaseResolution": 104,
  "BodyPartExamined": "BRAIN",
  "CoilCombinationMethod": "Sum of Squares",
  "ConsistencyInfo": "N4_VE11C_LATEST_20160120",
  "ConversionSoftware": "dcm2niix",
  "ConversionSoftwareVersion": "v1.0.20211006",
  "DerivedVendorReportedEchoSpacing": 0.000560011,
  "DeviceSerialNumber": "167006",
  "DwellTime": 2.1e-06,
  "EchoTime": 0.037,
  "EchoTime1": 0.037,
  "EchoTime2": 0.001,
  "EchoTrainLength": 104,
  "EffectiveEchoSpacing": 0.000560011,
  "FlipAngle": 52,
  "HeudiconvVersion": "0.10.0",
  "ImageComments": "Unaliased MB4/PE3/LB",
  "ImageOrientationPatientDICOM": [0.999511, 0.00249595, 0.0311836, 0.0141312, 0.853294, -0.521238],
  "ImageOrientationText": "Tra>Cor(-31.4)>Sag(1.6)",
  "ImageType": [
    "ORIGINAL",
    "PRIMARY",
    "P",
    "MB",
    "ND",
    "MOSAIC",
    "PHASE"
],
  "ImagingFrequency": 123.259,
  "InPlanePhaseEncodingDirectionDICOM": "COL",
  "InstitutionAddress": "Chemin Queen-Mary 4565,Montreal,District,CA,H3W 1W5",
  "InstitutionName": "IUGM",
  "InstitutionalDepartmentName": "Department",
  "MRAcquisitionType": "2D",
  "MagneticFieldStrength": 3,
  "Manufacturer": "Siemens",
  "ManufacturersModelName": "Prisma_fit",
  "MatrixCoilMode": "SENSE",
  "Modality": "MR",
  "MultibandAccelerationFactor": 4,
  "PartialFourier": 1,
  "PatientPosition": "HFS",
  "PercentPhaseFOV": 100,
  "PercentSampling": 100,
  "PhaseEncodingDirection": "j",
  "PhaseEncodingSteps": 104,
  "PhaseResolution": 1,
  "PixelBandwidth": 2290,
  "ProcedureStepDescription": "games^gamepad",
  "ProtocolName": "func_task-gamepad_run-1",
  "PulseSequenceDetails": "%CustomerSeq%\\cmrr_mbep2d_bold",
  "ReceiveCoilActiveElements": "HC1-7;NC1,2",
  "ReceiveCoilName": "HeadNeck_64",
  "ReconMatrixPE": 104,
  "RepetitionTime": 1.49,
  "SAR": 0.057093,
  "ScanOptions": "FS",
  "ScanningSequence": "EP",
  "SequenceName": "epfid2d1_104",
  "SequenceVariant": "SK\\SS",
  "SeriesDescription": "func_task-gamepad_run-1",
  "SeriesNumber": 11,
  "ShimSetting": [615, -7191, -8868, 270, 4, -155, -25, -20],
  "SliceThickness": 2,
  "SliceTiming": [0, 0.785, 0.0975, 0.8825, 0.195, 0.98, 0.295, 1.0775, 0.3925, 1.175, 0.49, 1.275, 0.5875, 1.3725, 0.685, 0, 0.785, 0.0975, 0.8825, 0.195, 0.98, 0.295, 1.0775, 0.3925, 1.175, 0.49, 1.275, 0.5875, 1.3725, 0.685, 0, 0.785, 0.0975, 0.8825, 0.195, 0.98, 0.295, 1.0775, 0.3925, 1.175, 0.49, 1.275, 0.5875, 1.3725, 0.685, 0, 0.785, 0.0975, 0.8825, 0.195, 0.98, 0.295, 1.0775, 0.3925, 1.175, 0.49, 1.275, 0.5875, 1.3725, 0.685],
  "SoftwareVersions": "syngo MR E11",
  "SpacingBetweenSlices": 2,
  "StationName": "MRC35049",
  "TaskName": "gamepad",
  "TotalReadoutTime": 0.0576811,
  "TxRefAmp": 275.177,
  "WipMemBlock": "edab644d-6d05-459f-af36-22e4294a4cce||Sequence: R016 ve11c/master r/e634e98; Dec 19 2017 11:00:25 by eja",
  "dcmmeta_affine": [
    [-1.999021053314209, 0.02826244942843914, 0.055819615721702576, 104.11250305175781],
    [-0.004991906229406595, 1.706588864326477, -1.0428467988967896, -49.91180419921875],
    [0.0623672716319561, 1.042475700378418, 1.7056831121444702, -92.80245971679688],
    [0.0, 0.0, 0.0, 1.0]
],
  "dcmmeta_reorient_transform": [
    [0.0, -1.0, 0.0, 103.0],
    [1.0, 0.0, 0.0, 0.0],
    [0.0, 0.0, 1.0, 0.0],
    [0.0, 0.0, 0.0, 1.0]
],
  "dcmmeta_shape": [104, 104, 60, 207],
  "dcmmeta_slice_dim": 2,
  "dcmmeta_version": 0.6,
  "global": {
    "const": {
      "AcquisitionMatrix": [104, 0, 0, 104],
      "AngioFlag": "N",
      "BitsAllocated": 16,
      "BitsStored": 16,
      "BodyPartExamined": "BRAIN",
      "Columns": 832,
      "EchoNumbers": 1,
      "EchoTime": 37.0,
      "EchoTrainLength": 104,
      "FlipAngle": 52.0,
      "HighBit": 15,
      "ImageOrientationPatient": [0.99951055575703, 0.00249595301393, 0.0311836359142, 0.01413122473575, 0.85329445019892, -0.5212378437405],
      "ImagePositionPatient": [-844.95475062704, -748.88226619941, 371.33199635822],
      "ImageType": [
        "ORIGINAL",
        "PRIMARY",
        "P",
        "MB",
        "ND",
        "MOSAIC"
],
      "ImagedNucleus": "1H",
      "ImagingFrequency": 123.258896,
      "InPlanePhaseEncodingDirection": "COL",
      "LargestImagePixelValue": 4095,
      "MRAcquisitionType": "2D",
      "MagneticFieldStrength": 3.0,
      "Manufacturer": "SIEMENS",
      "ManufacturerModelName": "Prisma_fit",
      "Modality": "MR",
      "NumberOfAverages": 1.0,
      "NumberOfPhaseEncodingSteps": 104,
      "PercentPhaseFieldOfView": 100.0,
      "PercentSampling": 100.0,
      "PerformedProcedureStepStartTime": "113607.601000",
      "PhotometricInterpretation": "MONOCHROME2",
      "PixelBandwidth": 2290.0,
      "PixelRepresentation": 0,
      "PixelSpacing": [2.0, 2.0],
      "ProtocolName": "func_task-gamepad_run-1",
      "RepetitionTime": 1490.0,
      "RescaleIntercept": -4096.0,
      "RescaleSlope": 2.0,
      "RescaleType": "US",
      "Rows": 832,
      "SAR": 0.05709295860214,
      "SamplesPerPixel": 1,
      "ScanOptions": "FS",
      "ScanningSequence": "EP",
      "SequenceName": "epfid2d1_104",
      "SequenceVariant": [
        "SK",
        "SS"
],
      "SeriesDescription": "func_task-gamepad_run-1",
      "SeriesNumber": 11,
      "SeriesTime": "114113.329000",
      "SliceLocation": -50.214853092118,
      "SliceThickness": 2.0,
      "SmallestImagePixelValue": 0,
      "SoftwareVersions": "syngo MR E11",
      "SpacingBetweenSlices": 1.9999999879576,
      "SpecificCharacterSet": "ISO_IR 100",
      "StudyID": "1",
      "StudyTime": "113607.536000",
      "TransmitCoilName": "Body",
      "VariableFlipAngleFlag": "N",
      "WindowCenterWidthExplanation": "Algo1",
      "dBdt": 0.0},
    "slices": {}
  },
  "time": {
    "samples": {
      "AcquisitionNumber": [1, 2, 3, 4, 5, 6, 7, 8, 9, 10, 11, 12, 13, 14, 15, 16, 17, 18, 19, 20, 21, 22, 23, 24, 25, 26, 27, 28, 29, 30, 31, 32, 33, 34, 35, 36, 37, 38, 39, 40, 41, 42, 43, 44, 45, 46, 47, 48, 49, 50, 51, 52, 53, 54, 55, 56, 57, 58, 59, 60, 61, 62, 63, 64, 65, 66, 67, 68, 69, 70, 71, 72, 73, 74, 75, 76, 77, 78, 79, 80, 81, 82, 83, 84, 85, 86, 87, 88, 89, 90, 91, 92, 93, 94, 95, 96, 97, 98, 99, 100, 101, 102, 103, 104, 105, 106, 107, 108, 109, 110, 111, 112, 113, 114, 115, 116, 117, 118, 119, 120, 121, 122, 123, 124, 125, 126, 127, 128, 129, 130, 131, 132, 133, 134, 135, 136, 137, 138, 139, 140, 141, 142, 143, 144, 145, 146, 147, 148, 149, 150, 151, 152, 153, 154, 155, 156, 157, 158, 159, 160, 161, 162, 163, 164, 165, 166, 167, 168, 169, 170, 171, 172, 173, 174, 175, 176, 177, 178, 179, 180, 181, 182, 183, 184, 185, 186, 187, 188, 189, 190, 191, 192, 193, 194, 195, 196, 197, 198, 199, 200, 201, 202, 203, 204, 205, 206, 207],
      "AcquisitionTime": ["113941.907500", "113943.397500", "113944.887500", "113946.377500", "113947.867500", "113949.357500", "113950.847500", "113952.337500", "113953.827500", "113955.317500", "113956.807500", "113958.297500", "113959.787500", "114001.277500", "114002.767500", "114004.257500", "114005.747500", "114007.237500", "114008.727500", "114010.217500", "114011.707500", "114013.197500", "114014.687500", "114016.177500", "114017.667500", "114019.157500", "114020.647500", "114022.137500", "114023.627500", "114025.117500", "114026.607500", "114028.097500", "114029.587500", "114031.077500", "114032.567500", "114034.057500", "114035.547500", "114037.037500", "114038.527500", "114040.017500", "114041.507500", "114042.997500", "114044.487500", "114045.977500", "114047.467500", "114048.957500", "114050.447500", "114051.937500", "114053.427500", "114054.917500", "114056.407500", "114057.897500", "114059.387500", "114100.877500", "114102.367500", "114103.857500", "114105.347500", "114106.837500", "114108.327500", "114109.817500", "114111.307500", "114112.797500", "114114.287500", "114115.777500", "114117.267500", "114118.757500", "114120.247500", "114121.737500", "114123.227500", "114124.717500", "114126.207500", "114127.697500", "114129.187500", "114130.677500", "114132.167500", "114133.657500", "114135.147500", "114136.637500", "114138.127500", "114139.617500", "114141.107500", "114142.597500", "114144.087500", "114145.577500", "114147.067500", "114148.557500", "114150.047500", "114151.537500", "114153.027500", "114154.517500", "114156.007500", "114157.497500", "114158.987500", "114200.477500", "114201.967500", "114203.457500", "114204.947500", "114206.437500", "114207.927500", "114209.417500", "114210.907500", "114212.397500", "114213.887500", "114215.377500", "114216.867500", "114218.357500", "114219.847500", "114221.337500", "114222.827500", "114224.317500", "114225.807500", "114227.297500", "114228.787500", "114230.277500", "114231.767500", "114233.257500", "114234.747500", "114236.237500", "114237.727500", "114239.217500", "114240.707500", "114242.197500", "114243.687500", "114245.177500", "114246.667500", "114248.157500", "114249.647500", "114251.137500", "114252.627500", "114254.117500", "114255.607500", "114257.097500", "114258.587500", "114300.077500", "114301.567500", "114303.057500", "114304.547500", "114306.037500", "114307.527500", "114309.017500", "114310.507500", "114311.997500", "114313.487500", "114314.977500", "114316.467500", "114317.957500", "114319.447500", "114320.937500", "114322.427500", "114323.917500", "114325.407500", "114326.897500", "114328.387500", "114329.877500", "114331.367500", "114332.857500", "114334.347500", "114335.837500", "114337.327500", "114338.817500", "114340.307500", "114341.797500", "114343.287500", "114344.777500", "114346.267500", "114347.757500", "114349.247500", "114350.737500", "114352.227500", "114353.717500", "114355.207500", "114356.697500", "114358.187500", "114359.677500", "114401.167500", "114402.657500", "114404.147500", "114405.637500", "114407.127500", "114408.617500", "114410.107500", "114411.597500", "114413.087500", "114414.577500", "114416.067500", "114417.557500", "114419.047500", "114420.537500", "114422.027500", "114423.517500", "114425.007500", "114426.497500", "114427.987500", "114429.477500", "114430.967500", "114432.457500", "114433.947500", "114435.437500", "114436.927500", "114438.417500", "114439.907500", "114441.397500", "114442.887500", "114444.377500", "114445.867500", "114447.357500", "114448.847500"],
      "ContentTime": ["114113.331000", "114113.334000", "114113.336000", "114113.339000", "114113.341000", "114113.344000", "114113.346000", "114113.349000", "114113.351000", "114113.354000", "114113.356000", "114113.359000", "114113.361000", "114113.364000", "114113.371000", "114113.373000", "114113.376000", "114113.378000", "114113.417000", "114113.420000", "114113.422000", "114113.425000", "114113.427000", "114113.430000", "114113.432000", "114113.435000", "114113.437000", "114113.440000", "114113.442000", "114113.445000", "114113.448000", "114113.450000", "114113.453000", "114113.455000", "114113.458000", "114113.460000", "114113.463000", "114133.219000", "114133.222000", "114133.224000", "114133.227000", "114133.229000", "114133.232000", "114133.234000", "114133.237000", "114133.239000", "114133.242000", "114133.244000", "114133.247000", "114133.249000", "114133.255000", "114133.258000", "114133.260000", "114133.262000", "114133.265000", "114133.267000", "114133.270000", "114153.230000", "114153.232000", "114153.235000", "114153.238000", "114153.240000", "114153.242000", "114153.245000", "114153.247000", "114153.250000", "114153.252000", "114153.255000", "114153.257000", "114153.260000", "114153.262000", "114153.265000", "114153.267000", "114153.270000", "114153.273000", "114153.276000", "114153.278000", "114153.281000", "114213.235000", "114213.238000", "114213.241000", "114213.243000", "114213.246000", "114213.248000", "114213.251000", "114213.253000", "114213.256000", "114213.258000", "114213.261000", "114213.263000", "114213.266000", "114213.268000", "114213.271000", "114213.273000", "114213.276000", "114213.278000", "114213.281000", "114213.283000", "114253.266000", "114253.269000", "114253.272000", "114253.274000", "114253.277000", "114253.279000", "114253.282000", "114253.284000", "114253.287000", "114253.289000", "114253.292000", "114253.294000", "114253.297000", "114253.299000", "114253.302000", "114253.304000", "114253.307000", "114253.309000", "114253.312000", "114253.314000", "114253.317000", "114253.319000", "114253.322000", "114253.324000", "114253.327000", "114253.329000", "114253.332000", "114253.334000", "114253.337000", "114333.262000", "114333.265000", "114333.268000", "114333.270000", "114333.273000", "114333.275000", "114333.278000", "114333.280000", "114333.283000", "114333.285000", "114333.288000", "114333.290000", "114333.293000", "114333.295000", "114333.298000", "114333.300000", "114333.303000", "114333.305000", "114333.308000", "114333.310000", "114333.313000", "114333.315000", "114333.318000", "114333.320000", "114333.323000", "114333.325000", "114333.328000", "114413.248000", "114413.251000", "114413.254000", "114413.257000", "114413.260000", "114413.263000", "114413.266000", "114413.269000", "114413.271000", "114413.274000", "114413.277000", "114413.280000", "114413.283000", "114413.286000", "114413.288000", "114413.291000", "114413.294000", "114413.297000", "114413.300000", "114413.303000", "114413.305000", "114413.308000", "114413.311000", "114413.313000", "114413.316000", "114413.319000", "114413.322000", "114451.391000", "114451.394000", "114451.396000", "114451.399000", "114451.401000", "114451.404000", "114451.407000", "114451.410000", "114451.412000", "114451.415000", "114451.418000", "114451.420000", "114451.423000", "114451.426000", "114451.428000", "114451.431000", "114451.434000", "114451.436000", "114451.439000", "114451.441000", "114451.444000", "114451.447000", "114451.449000", "114451.452000", "114451.455000", "114451.458000"],
      "InstanceCreationTime": ["114113.331000", "114113.334000", "114113.336000", "114113.339000", "114113.341000", "114113.344000", "114113.346000", "114113.349000", "114113.351000", "114113.354000", "114113.356000", "114113.359000", "114113.361000", "114113.364000", "114113.371000", "114113.373000", "114113.376000", "114113.378000", "114113.417000", "114113.420000", "114113.422000", "114113.425000", "114113.427000", "114113.430000", "114113.432000", "114113.435000", "114113.437000", "114113.440000", "114113.442000", "114113.445000", "114113.448000", "114113.450000", "114113.453000", "114113.455000", "114113.458000", "114113.460000", "114113.463000", "114133.219000", "114133.222000", "114133.224000", "114133.227000", "114133.229000", "114133.232000", "114133.234000", "114133.237000", "114133.239000", "114133.242000", "114133.244000", "114133.247000", "114133.249000", "114133.255000", "114133.258000", "114133.260000", "114133.262000", "114133.265000", "114133.267000", "114133.270000", "114153.230000", "114153.232000", "114153.235000", "114153.238000", "114153.240000", "114153.242000", "114153.245000", "114153.247000", "114153.250000", "114153.252000", "114153.255000", "114153.257000", "114153.260000", "114153.262000", "114153.265000", "114153.267000", "114153.270000", "114153.273000", "114153.276000", "114153.278000", "114153.281000", "114213.235000", "114213.238000", "114213.241000", "114213.243000", "114213.246000", "114213.248000", "114213.251000", "114213.253000", "114213.256000", "114213.258000", "114213.261000", "114213.263000", "114213.266000", "114213.268000", "114213.271000", "114213.273000", "114213.276000", "114213.278000", "114213.281000", "114213.283000", "114253.266000", "114253.269000", "114253.272000", "114253.274000", "114253.277000", "114253.279000", "114253.282000", "114253.284000", "114253.287000", "114253.289000", "114253.292000", "114253.294000", "114253.297000", "114253.299000", "114253.302000", "114253.304000", "114253.307000", "114253.309000", "114253.312000", "114253.314000", "114253.317000", "114253.319000", "114253.322000", "114253.324000", "114253.327000", "114253.329000", "114253.332000", "114253.334000", "114253.337000", "114333.262000", "114333.265000", "114333.268000", "114333.270000", "114333.273000", "114333.275000", "114333.278000", "114333.280000", "114333.283000", "114333.285000", "114333.288000", "114333.290000", "114333.293000", "114333.295000", "114333.298000", "114333.300000", "114333.303000", "114333.305000", "114333.308000", "114333.310000", "114333.313000", "114333.315000", "114333.318000", "114333.320000", "114333.323000", "114333.325000", "114333.328000", "114413.248000", "114413.251000", "114413.254000", "114413.257000", "114413.260000", "114413.263000", "114413.266000", "114413.269000", "114413.271000", "114413.274000", "114413.277000", "114413.280000", "114413.283000", "114413.286000", "114413.288000", "114413.291000", "114413.294000", "114413.297000", "114413.300000", "114413.303000", "114413.305000", "114413.308000", "114413.311000", "114413.313000", "114413.316000", "114413.319000", "114413.322000", "114451.391000", "114451.394000", "114451.396000", "114451.399000", "114451.401000", "114451.404000", "114451.407000", "114451.410000", "114451.412000", "114451.415000", "114451.418000", "114451.420000", "114451.423000", "114451.426000", "114451.428000", "114451.431000", "114451.434000", "114451.436000", "114451.439000", "114451.441000", "114451.444000", "114451.447000", "114451.449000", "114451.452000", "114451.455000", "114451.458000"],
      "InstanceNumber": [1, 2, 3, 4, 5, 6, 7, 8, 9, 10, 11, 12, 13, 14, 15, 16, 17, 18, 19, 20, 21, 22, 23, 24, 25, 26, 27, 28, 29, 30, 31, 32, 33, 34, 35, 36, 37, 38, 39, 40, 41, 42, 43, 44, 45, 46, 47, 48, 49, 50, 51, 52, 53, 54, 55, 56, 57, 58, 59, 60, 61, 62, 63, 64, 65, 66, 67, 68, 69, 70, 71, 72, 73, 74, 75, 76, 77, 78, 79, 80, 81, 82, 83, 84, 85, 86, 87, 88, 89, 90, 91, 92, 93, 94, 95, 96, 97, 98, 99, 100, 101, 102, 103, 104, 105, 106, 107, 108, 109, 110, 111, 112, 113, 114, 115, 116, 117, 118, 119, 120, 121, 122, 123, 124, 125, 126, 127, 128, 129, 130, 131, 132, 133, 134, 135, 136, 137, 138, 139, 140, 141, 142, 143, 144, 145, 146, 147, 148, 149, 150, 151, 152, 153, 154, 155, 156, 157, 158, 159, 160, 161, 162, 163, 164, 165, 166, 167, 168, 169, 170, 171, 172, 173, 174, 175, 176, 177, 178, 179, 180, 181, 182, 183, 184, 185, 186, 187, 188, 189, 190, 191, 192, 193, 194, 195, 196, 197, 198, 199, 200, 201, 202, 203, 204, 205, 206, 207],
      "WindowCenter": [4838.0, 4830.0, 4832.0, 4832.0, 4832.0, 4838.0, 4860.0, 4836.0, 4864.0, 4834.0, 4862.0, 4836.0, 4826.0, 4834.0, 4826.0, 4836.0, 4866.0, 4830.0, 4862.0, 4862.0, 4826.0, 4834.0, 4862.0, 4832.0, 4836.0, 4832.0, 4834.0, 4834.0, 4834.0, 4834.0, 4860.0, 4836.0, 4828.0, 4834.0, 4826.0, 4826.0, 4834.0, 4822.0, 4860.0, 4856.0, 4832.0, 4836.0, 4860.0, 4868.0, 4832.0, 4828.0, 4834.0, 4824.0, 4834.0, 4828.0, 4830.0, 4860.0, 4834.0, 4868.0, 4860.0, 4830.0, 4836.0, 4800.0, 4826.0, 4830.0, 4820.0, 4834.0, 4864.0, 4832.0, 4862.0, 4830.0, 4860.0, 4828.0, 4832.0, 4836.0, 4822.0, 4832.0, 4826.0, 4836.0, 4832.0, 4832.0, 4832.0, 4834.0, 4832.0, 4862.0, 4856.0, 4834.0, 4836.0, 4824.0, 4836.0, 4822.0, 4828.0, 4832.0, 4868.0, 4858.0, 4866.0, 4830.0, 4826.0, 4836.0, 4828.0, 4838.0, 4830.0, 4860.0, 4858.0, 4860.0, 4864.0, 4836.0, 4864.0, 4828.0, 4838.0, 4826.0, 4832.0, 4830.0, 4836.0, 4862.0, 4830.0, 4860.0, 4836.0, 4838.0, 4862.0, 4828.0, 4832.0, 4822.0, 4836.0, 4834.0, 4864.0, 4858.0, 4864.0, 4838.0, 4838.0, 4840.0, 4796.0, 4826.0, 4836.0, 4832.0, 4862.0, 4830.0, 4864.0, 4858.0, 4864.0, 4860.0, 4832.0, 4838.0, 4828.0, 4838.0, 4832.0, 4834.0, 4864.0, 4832.0, 4866.0, 4858.0, 4864.0, 4834.0, 4836.0, 4862.0, 4830.0, 4858.0, 4828.0, 4862.0, 4832.0, 4832.0, 4838.0, 4832.0, 4866.0, 4858.0, 4860.0, 4864.0, 4828.0, 4838.0, 4830.0, 4834.0, 4864.0, 4824.0, 4834.0, 4830.0, 4834.0, 4858.0, 4834.0, 4862.0, 4836.0, 4868.0, 4832.0, 4858.0, 4838.0, 4826.0, 4858.0, 4830.0, 4860.0, 4860.0, 4832.0, 4864.0, 4862.0, 4858.0, 4866.0, 4832.0, 4828.0, 4862.0, 4822.0, 4834.0, 4870.0, 4856.0, 4864.0, 4872.0, 4834.0, 4856.0, 4862.0, 4830.0, 4860.0, 4834.0, 4830.0, 4862.0, 4868.0],
      "WindowWidth": [18646.0, 18642.0, 18644.0, 18646.0, 18650.0, 18648.0, 18680.0, 18652.0, 18678.0, 18652.0, 18680.0, 18652.0, 18644.0, 18650.0, 18646.0, 18650.0, 18682.0, 18648.0, 18680.0, 18678.0, 18648.0, 18648.0, 18678.0, 18650.0, 18648.0, 18646.0, 18648.0, 18650.0, 18650.0, 18646.0, 18680.0, 18648.0, 18644.0, 18644.0, 18644.0, 18646.0, 18646.0, 18642.0, 18680.0, 18678.0, 18650.0, 18652.0, 18682.0, 18678.0, 18648.0, 18646.0, 18652.0, 18642.0, 18648.0, 18640.0, 18648.0, 18680.0, 18646.0, 18682.0, 18678.0, 18642.0, 18648.0, 18614.0, 18642.0, 18644.0, 18640.0, 18646.0, 18678.0, 18646.0, 18680.0, 18646.0, 18676.0, 18646.0, 18650.0, 18648.0, 18638.0, 18646.0, 18642.0, 18650.0, 18648.0, 18648.0, 18648.0, 18650.0, 18650.0, 18682.0, 18678.0, 18652.0, 18648.0, 18648.0, 18650.0, 18640.0, 18646.0, 18652.0, 18682.0, 18678.0, 18682.0, 18644.0, 18638.0, 18642.0, 18642.0, 18648.0, 18648.0, 18678.0, 18678.0, 18680.0, 18684.0, 18646.0, 18676.0, 18640.0, 18642.0, 18648.0, 18642.0, 18638.0, 18648.0, 18674.0, 18646.0, 18676.0, 18648.0, 18646.0, 18676.0, 18644.0, 18642.0, 18638.0, 18646.0, 18648.0, 18672.0, 18676.0, 18676.0, 18646.0, 18650.0, 18646.0, 18606.0, 18636.0, 18644.0, 18646.0, 18670.0, 18648.0, 18682.0, 18676.0, 18680.0, 18674.0, 18644.0, 18644.0, 18642.0, 18648.0, 18642.0, 18644.0, 18674.0, 18646.0, 18674.0, 18674.0, 18678.0, 18642.0, 18644.0, 18678.0, 18644.0, 18674.0, 18638.0, 18674.0, 18644.0, 18644.0, 18644.0, 18648.0, 18678.0, 18674.0, 18680.0, 18676.0, 18640.0, 18648.0, 18644.0, 18640.0, 18674.0, 18642.0, 18642.0, 18636.0, 18648.0, 18674.0, 18642.0, 18674.0, 18642.0, 18678.0, 18642.0, 18672.0, 18638.0, 18640.0, 18674.0, 18640.0, 18670.0, 18674.0, 18646.0, 18678.0, 18674.0, 18676.0, 18676.0, 18648.0, 18642.0, 18678.0, 18638.0, 18646.0, 18678.0, 18676.0, 18684.0, 18678.0, 18644.0, 18672.0, 18674.0, 18640.0, 18672.0, 18638.0, 18648.0, 18676.0, 18674.0]
    },
    "slices": {}
  }
}