{
  "AcquisitionMatrixPE": 104,
  "AcquisitionNumber": 1,
  "AcquisitionTime": "11:39:41.907500",
  "B0FieldSource": "sub-02_ses-008_task-gamepad_run-01_part-mag_bold.nii.gz",
  "BandwidthPerPixelPhaseEncode": 17.17,
  "BaseResolution": 104,
  "BodyPartExamined": "BRAIN",
  "CoilCombinationMethod": "Sum of Squares",
  "ConsistencyInfo": "N4_VE11C_LATEST_20160120",
  "ConversionSoftware": "dcm2niix",
  "ConversionSoftwareVersion": "v1.0.20211006",
  "DerivedVendorReportedEchoSpacing": 0.000560011,
  "DeviceSerialNumber": "167006",
  "DwellTime": 2.1e-06,
  "EchoTime": 0.037,
  "EchoTrainLength": 104,
  "EffectiveEchoSpacing": 0.000560011,
  "FlipAngle": 52,
  "HeudiconvVersion": "0.10.0",
  "ImageComments": "Unaliased MB4/PE3/LB",
  "ImageOrientationPatientDICOM": [0.999511, 0.00249595, 0.0311836, 0.0141312, 0.853294, -0.521238],
  "ImageOrientationText": "Tra>Cor(-31.4)>Sag(1.6)",
  "ImageType": [
    "ORIGINAL",
    "PRIMARY",
    "M",
    "MB",
    "ND",
    "MOSAIC"
],
  "ImagingFrequency": 123.259,
  "InPlanePhaseEncodingDirectionDICOM": "COL",
  "InstitutionAddress": "Chemin Queen-Mary 4565,Montreal,District,CA,H3W 1W5",
  "InstitutionName": "IUGM",
  "InstitutionalDepartmentName": "Department",
  "MRAcquisitionType": "2D",
  "MagneticFieldStrength": 3,
  "Manufacturer": "Siemens",
  "ManufacturersModelName": "Prisma_fit",
  "MatrixCoilMode": "SENSE",
  "Modality": "MR",
  "MultibandAccelerationFactor": 4,
  "PartialFourier": 1,
  "PatientPosition": "HFS",
  "PercentPhaseFOV": 100,
  "PercentSampling": 100,
  "PhaseEncodingDirection": "j",
  "PhaseEncodingSteps": 104,
  "PhaseResolution": 1,
  "PixelBandwidth": 2290,
  "ProcedureStepDescription": "games^gamepad",
  "ProtocolName": "func_task-gamepad_run-1",
  "PulseSequenceDetails": "%CustomerSeq%\\cmrr_mbep2d_bold",
  "ReceiveCoilActiveElements": "HC1-7;NC1,2",
  "ReceiveCoilName": "HeadNeck_64",
  "ReconMatrixPE": 104,
  "RepetitionTime": 1.49,
  "SAR": 0.057093,
  "ScanOptions": "FS",
  "ScanningSequence": "EP",
  "SequenceName": "epfid2d1_104",
  "SequenceVariant": "SK\\SS",
  "SeriesDescription": "func_task-gamepad_run-1",
  "SeriesNumber": 10,
  "ShimSetting": [615, -7191, -8868, 270, 4, -155, -25, -20],
  "SliceThickness": 2,
  "SliceTiming": [0, 0.785, 0.0975, 0.8825, 0.195, 0.98, 0.295, 1.0775, 0.3925, 1.175, 0.49, 1.275, 0.5875, 1.3725, 0.685, 0, 0.785, 0.0975, 0.8825, 0.195, 0.98, 0.295, 1.0775, 0.3925, 1.175, 0.49, 1.275, 0.5875, 1.3725, 0.685, 0, 0.785, 0.0975, 0.8825, 0.195, 0.98, 0.295, 1.0775, 0.3925, 1.175, 0.49, 1.275, 0.5875, 1.3725, 0.685, 0, 0.785, 0.0975, 0.8825, 0.195, 0.98, 0.295, 1.0775, 0.3925, 1.175, 0.49, 1.275, 0.5875, 1.3725, 0.685],
  "SoftwareVersions": "syngo MR E11",
  "SpacingBetweenSlices": 2,
  "StationName": "MRC35049",
  "TaskName": "gamepad",
  "TotalReadoutTime": 0.0576811,
  "TxRefAmp": 275.177,
  "WipMemBlock": "edab644d-6d05-459f-af36-22e4294a4cce||Sequence: R016 ve11c/master r/e634e98; Dec 19 2017 11:00:25 by eja",
  "dcmmeta_affine": [
    [-1.999021053314209, 0.02826244942843914, 0.055819615721702576, 104.11250305175781],
    [-0.004991906229406595, 1.706588864326477, -1.0428467988967896, -49.91180419921875],
    [0.0623672716319561, 1.042475700378418, 1.7056831121444702, -92.80245971679688],
    [0.0, 0.0, 0.0, 1.0]
],
  "dcmmeta_reorient_transform": [
    [0.0, -1.0, 0.0, 103.0],
    [1.0, 0.0, 0.0, 0.0],
    [0.0, 0.0, 1.0, 0.0],
    [0.0, 0.0, 0.0, 1.0]
],
  "dcmmeta_shape": [104, 104, 60, 207],
  "dcmmeta_slice_dim": 2,
  "dcmmeta_version": 0.6,
  "global": {
    "const": {
      "AcquisitionMatrix": [104, 0, 0, 104],
      "AngioFlag": "N",
      "BitsAllocated": 16,
      "BitsStored": 16,
      "BodyPartExamined": "BRAIN",
      "Columns": 832,
      "EchoNumbers": 1,
      "EchoTime": 37.0,
      "EchoTrainLength": 104,
      "FlipAngle": 52.0,
      "HighBit": 15,
      "ImageOrientationPatient": [0.99951055575703, 0.00249595301393, 0.0311836359142, 0.01413122473575, 0.85329445019892, -0.5212378437405],
      "ImagePositionPatient": [-844.95475062704, -748.88226619941, 371.33199635822],
      "ImageType": [
        "ORIGINAL",
        "PRIMARY",
        "M",
        "MB",
        "ND",
        "MOSAIC"
],
      "ImagedNucleus": "1H",
      "ImagingFrequency": 123.258896,
      "InPlanePhaseEncodingDirection": "COL",
      "MRAcquisitionType": "2D",
      "MagneticFieldStrength": 3.0,
      "Manufacturer": "SIEMENS",
      "ManufacturerModelName": "Prisma_fit",
      "Modality": "MR",
      "NumberOfAverages": 1.0,
      "NumberOfPhaseEncodingSteps": 104,
      "PercentPhaseFieldOfView": 100.0,
      "PercentSampling": 100.0,
      "PerformedProcedureStepStartTime": "113607.601000",
      "PhotometricInterpretation": "MONOCHROME2",
      "PixelBandwidth": 2290.0,
      "PixelRepresentation": 0,
      "PixelSpacing": [2.0, 2.0],
      "ProtocolName": "func_task-gamepad_run-1",
      "RepetitionTime": 1490.0,
      "Rows": 832,
      "SAR": 0.05709295860214,
      "SamplesPerPixel": 1,
      "ScanOptions": "FS",
      "ScanningSequence": "EP",
      "SequenceName": "epfid2d1_104",
      "SequenceVariant": [
        "SK",
        "SS"
],
      "SeriesDescription": "func_task-gamepad_run-1",
      "SeriesNumber": 10,
      "SeriesTime": "114113.147000",
      "SliceLocation": -50.214853092118,
      "SliceThickness": 2.0,
      "SmallestImagePixelValue": 0,
      "SoftwareVersions": "syngo MR E11",
      "SpacingBetweenSlices": 1.9999999879576,
      "SpecificCharacterSet": "ISO_IR 100",
      "StudyID": "1",
      "StudyTime": "113607.536000",
      "TransmitCoilName": "Body",
      "VariableFlipAngleFlag": "N",
      "WindowCenterWidthExplanation": "Algo1",
      "dBdt": 0.0},
    "slices": {}
  },
  "time": {
    "samples": {
      "AcquisitionNumber": [1, 2, 3, 4, 5, 6, 7, 8, 9, 10, 11, 12, 13, 14, 15, 16, 17, 18, 19, 20, 21, 22, 23, 24, 25, 26, 27, 28, 29, 30, 31, 32, 33, 34, 35, 36, 37, 38, 39, 40, 41, 42, 43, 44, 45, 46, 47, 48, 49, 50, 51, 52, 53, 54, 55, 56, 57, 58, 59, 60, 61, 62, 63, 64, 65, 66, 67, 68, 69, 70, 71, 72, 73, 74, 75, 76, 77, 78, 79, 80, 81, 82, 83, 84, 85, 86, 87, 88, 89, 90, 91, 92, 93, 94, 95, 96, 97, 98, 99, 100, 101, 102, 103, 104, 105, 106, 107, 108, 109, 110, 111, 112, 113, 114, 115, 116, 117, 118, 119, 120, 121, 122, 123, 124, 125, 126, 127, 128, 129, 130, 131, 132, 133, 134, 135, 136, 137, 138, 139, 140, 141, 142, 143, 144, 145, 146, 147, 148, 149, 150, 151, 152, 153, 154, 155, 156, 157, 158, 159, 160, 161, 162, 163, 164, 165, 166, 167, 168, 169, 170, 171, 172, 173, 174, 175, 176, 177, 178, 179, 180, 181, 182, 183, 184, 185, 186, 187, 188, 189, 190, 191, 192, 193, 194, 195, 196, 197, 198, 199, 200, 201, 202, 203, 204, 205, 206, 207],
      "AcquisitionTime": ["113941.907500", "113943.397500", "113944.887500", "113946.377500", "113947.867500", "113949.357500", "113950.847500", "113952.337500", "113953.827500", "113955.317500", "113956.807500", "113958.297500", "113959.787500", "114001.277500", "114002.767500", "114004.257500", "114005.747500", "114007.237500", "114008.727500", "114010.217500", "114011.707500", "114013.197500", "114014.687500", "114016.177500", "114017.667500", "114019.157500", "114020.647500", "114022.137500", "114023.627500", "114025.117500", "114026.607500", "114028.097500", "114029.587500", "114031.077500", "114032.567500", "114034.057500", "114035.547500", "114037.037500", "114038.527500", "114040.017500", "114041.507500", "114042.997500", "114044.487500", "114045.977500", "114047.467500", "114048.957500", "114050.447500", "114051.937500", "114053.427500", "114054.917500", "114056.407500", "114057.897500", "114059.387500", "114100.877500", "114102.367500", "114103.857500", "114105.347500", "114106.837500", "114108.327500", "114109.817500", "114111.307500", "114112.797500", "114114.287500", "114115.777500", "114117.267500", "114118.757500", "114120.247500", "114121.737500", "114123.227500", "114124.717500", "114126.207500", "114127.697500", "114129.187500", "114130.677500", "114132.167500", "114133.657500", "114135.147500", "114136.637500", "114138.127500", "114139.617500", "114141.107500", "114142.597500", "114144.087500", "114145.577500", "114147.067500", "114148.557500", "114150.047500", "114151.537500", "114153.027500", "114154.517500", "114156.007500", "114157.497500", "114158.987500", "114200.477500", "114201.967500", "114203.457500", "114204.947500", "114206.437500", "114207.927500", "114209.417500", "114210.907500", "114212.397500", "114213.887500", "114215.377500", "114216.867500", "114218.357500", "114219.847500", "114221.337500", "114222.827500", "114224.317500", "114225.807500", "114227.297500", "114228.787500", "114230.277500", "114231.767500", "114233.257500", "114234.747500", "114236.237500", "114237.727500", "114239.217500", "114240.707500", "114242.197500", "114243.687500", "114245.177500", "114246.667500", "114248.157500", "114249.647500", "114251.137500", "114252.627500", "114254.117500", "114255.607500", "114257.097500", "114258.587500", "114300.077500", "114301.567500", "114303.057500", "114304.547500", "114306.037500", "114307.527500", "114309.017500", "114310.507500", "114311.997500", "114313.487500", "114314.977500", "114316.467500", "114317.957500", "114319.447500", "114320.937500", "114322.427500", "114323.917500", "114325.407500", "114326.897500", "114328.387500", "114329.877500", "114331.367500", "114332.857500", "114334.347500", "114335.837500", "114337.327500", "114338.817500", "114340.307500", "114341.797500", "114343.287500", "114344.777500", "114346.267500", "114347.757500", "114349.247500", "114350.737500", "114352.227500", "114353.717500", "114355.207500", "114356.697500", "114358.187500", "114359.677500", "114401.167500", "114402.657500", "114404.147500", "114405.637500", "114407.127500", "114408.617500", "114410.107500", "114411.597500", "114413.087500", "114414.577500", "114416.067500", "114417.557500", "114419.047500", "114420.537500", "114422.027500", "114423.517500", "114425.007500", "114426.497500", "114427.987500", "114429.477500", "114430.967500", "114432.457500", "114433.947500", "114435.437500", "114436.927500", "114438.417500", "114439.907500", "114441.397500", "114442.887500", "114444.377500", "114445.867500", "114447.357500", "114448.847500"],
      "ContentTime": ["114113.150000", "114113.153000", "114113.157000", "114113.160000", "114113.163000", "114113.167000", "114113.170000", "114113.174000", "114113.177000", "114113.180000", "114113.183000", "114113.187000", "114113.190000", "114113.193000", "114113.203000", "114113.207000", "114113.210000", "114113.213000", "114113.217000", "114113.220000", "114113.223000", "114113.227000", "114113.230000", "114113.233000", "114113.237000", "114113.240000", "114113.243000", "114113.246000", "114113.250000", "114113.253000", "114113.256000", "114113.260000", "114113.263000", "114113.266000", "114113.270000", "114113.273000", "114113.276000", "114133.114000", "114133.118000", "114133.121000", "114133.125000", "114133.128000", "114133.131000", "114133.135000", "114133.138000", "114133.142000", "114133.145000", "114133.149000", "114133.152000", "114133.155000", "114133.159000", "114133.162000", "114133.165000", "114133.169000", "114133.172000", "114133.175000", "114133.179000", "114153.113000", "114153.117000", "114153.120000", "114153.123000", "114153.127000", "114153.130000", "114153.133000", "114153.137000", "114153.140000", "114153.143000", "114153.147000", "114153.150000", "114153.153000", "114153.157000", "114153.160000", "114153.163000", "114153.167000", "114153.170000", "114153.173000", "114153.176000", "114153.180000", "114213.114000", "114213.118000", "114213.122000", "114213.125000", "114213.128000", "114213.132000", "114213.135000", "114213.138000", "114213.142000", "114213.145000", "114213.148000", "114213.152000", "114213.155000", "114213.167000", "114213.170000", "114213.173000", "114213.177000", "114213.180000", "114213.184000", "114213.187000", "114253.114000", "114253.118000", "114253.121000", "114253.125000", "114253.128000", "114253.131000", "114253.135000", "114253.138000", "114253.141000", "114253.145000", "114253.148000", "114253.151000", "114253.155000", "114253.158000", "114253.162000", "114253.165000", "114253.168000", "114253.172000", "114253.175000", "114253.179000", "114253.182000", "114253.185000", "114253.189000", "114253.192000", "114253.195000", "114253.199000", "114253.202000", "114253.205000", "114253.208000", "114333.114000", "114333.118000", "114333.121000", "114333.125000", "114333.128000", "114333.131000", "114333.135000", "114333.138000", "114333.142000", "114333.145000", "114333.149000", "114333.152000", "114333.156000", "114333.159000", "114333.162000", "114333.166000", "114333.169000", "114333.172000", "114333.176000", "114333.179000", "114333.182000", "114333.186000", "114333.189000", "114333.192000", "114333.196000", "114333.199000", "114333.202000", "114413.114000", "114413.117000", "114413.121000", "114413.124000", "114413.127000", "114413.131000", "114413.134000", "114413.137000", "114413.141000", "114413.144000", "114413.148000", "114413.151000", "114413.154000", "114413.158000", "114413.161000", "114413.165000", "114413.168000", "114413.171000", "114413.175000", "114413.178000", "114413.181000", "114413.185000", "114413.188000", "114413.192000", "114413.195000", "114413.199000", "114413.202000", "114451.250000", "114451.253000", "114451.257000", "114451.260000", "114451.264000", "114451.267000", "114451.270000", "114451.274000", "114451.277000", "114451.281000", "114451.284000", "114451.288000", "114451.291000", "114451.295000", "114451.298000", "114451.310000", "114451.314000", "114451.317000", "114451.320000", "114451.324000", "114451.327000", "114451.330000", "114451.334000", "114451.337000", "114451.341000", "114451.344000"],
      "InstanceCreationTime": ["114113.150000", "114113.153000", "114113.157000", "114113.160000", "114113.163000", "114113.167000", "114113.170000", "114113.174000", "114113.177000", "114113.180000", "114113.183000", "114113.187000", "114113.190000", "114113.193000", "114113.203000", "114113.207000", "114113.210000", "114113.213000", "114113.217000", "114113.220000", "114113.223000", "114113.227000", "114113.230000", "114113.233000", "114113.237000", "114113.240000", "114113.243000", "114113.246000", "114113.250000", "114113.253000", "114113.256000", "114113.260000", "114113.263000", "114113.266000", "114113.270000", "114113.273000", "114113.276000", "114133.114000", "114133.118000", "114133.121000", "114133.125000", "114133.128000", "114133.131000", "114133.135000", "114133.138000", "114133.142000", "114133.145000", "114133.149000", "114133.152000", "114133.155000", "114133.159000", "114133.162000", "114133.165000", "114133.169000", "114133.172000", "114133.175000", "114133.179000", "114153.113000", "114153.117000", "114153.120000", "114153.123000", "114153.127000", "114153.130000", "114153.133000", "114153.137000", "114153.140000", "114153.143000", "114153.147000", "114153.150000", "114153.153000", "114153.157000", "114153.160000", "114153.163000", "114153.167000", "114153.170000", "114153.173000", "114153.176000", "114153.180000", "114213.114000", "114213.118000", "114213.122000", "114213.125000", "114213.128000", "114213.132000", "114213.135000", "114213.138000", "114213.142000", "114213.145000", "114213.148000", "114213.152000", "114213.155000", "114213.167000", "114213.170000", "114213.173000", "114213.177000", "114213.180000", "114213.184000", "114213.187000", "114253.114000", "114253.118000", "114253.121000", "114253.125000", "114253.128000", "114253.131000", "114253.135000", "114253.138000", "114253.141000", "114253.145000", "114253.148000", "114253.151000", "114253.155000", "114253.158000", "114253.162000", "114253.165000", "114253.168000", "114253.172000", "114253.175000", "114253.179000", "114253.182000", "114253.185000", "114253.189000", "114253.192000", "114253.195000", "114253.199000", "114253.202000", "114253.205000", "114253.208000", "114333.114000", "114333.118000", "114333.121000", "114333.125000", "114333.128000", "114333.131000", "114333.135000", "114333.138000", "114333.142000", "114333.145000", "114333.149000", "114333.152000", "114333.156000", "114333.159000", "114333.162000", "114333.166000", "114333.169000", "114333.172000", "114333.176000", "114333.179000", "114333.182000", "114333.186000", "114333.189000", "114333.192000", "114333.196000", "114333.199000", "114333.202000", "114413.114000", "114413.117000", "114413.121000", "114413.124000", "114413.127000", "114413.131000", "114413.134000", "114413.137000", "114413.141000", "114413.144000", "114413.148000", "114413.151000", "114413.154000", "114413.158000", "114413.161000", "114413.165000", "114413.168000", "114413.171000", "114413.175000", "114413.178000", "114413.181000", "114413.185000", "114413.188000", "114413.192000", "114413.195000", "114413.199000", "114413.202000", "114451.250000", "114451.253000", "114451.257000", "114451.260000", "114451.264000", "114451.267000", "114451.270000", "114451.274000", "114451.277000", "114451.281000", "114451.284000", "114451.288000", "114451.291000", "114451.295000", "114451.298000", "114451.310000", "114451.314000", "114451.317000", "114451.320000", "114451.324000", "114451.327000", "114451.330000", "114451.334000", "114451.337000", "114451.341000", "114451.344000"],
      "InstanceNumber": [1, 2, 3, 4, 5, 6, 7, 8, 9, 10, 11, 12, 13, 14, 15, 16, 17, 18, 19, 20, 21, 22, 23, 24, 25, 26, 27, 28, 29, 30, 31, 32, 33, 34, 35, 36, 37, 38, 39, 40, 41, 42, 43, 44, 45, 46, 47, 48, 49, 50, 51, 52, 53, 54, 55, 56, 57, 58, 59, 60, 61, 62, 63, 64, 65, 66, 67, 68, 69, 70, 71, 72, 73, 74, 75, 76, 77, 78, 79, 80, 81, 82, 83, 84, 85, 86, 87, 88, 89, 90, 91, 92, 93, 94, 95, 96, 97, 98, 99, 100, 101, 102, 103, 104, 105, 106, 107, 108, 109, 110, 111, 112, 113, 114, 115, 116, 117, 118, 119, 120, 121, 122, 123, 124, 125, 126, 127, 128, 129, 130, 131, 132, 133, 134, 135, 136, 137, 138, 139, 140, 141, 142, 143, 144, 145, 146, 147, 148, 149, 150, 151, 152, 153, 154, 155, 156, 157, 158, 159, 160, 161, 162, 163, 164, 165, 166, 167, 168, 169, 170, 171, 172, 173, 174, 175, 176, 177, 178, 179, 180, 181, 182, 183, 184, 185, 186, 187, 188, 189, 190, 191, 192, 193, 194, 195, 196, 197, 198, 199, 200, 201, 202, 203, 204, 205, 206, 207],
      "LargestImagePixelValue": [50202, 49180, 48924, 48246, 48277, 47327, 47499, 47937, 47981, 47713, 47670, 47979, 47919, 48056, 47260, 47818, 47949, 47878, 47262, 47455, 47595, 47721, 48002, 47735, 47520, 47443, 47740, 47644, 47526, 47534, 47315, 47570, 47916, 48106, 47634, 48076, 48038, 47917, 47739, 47397, 47592, 47998, 47910, 48042, 47536, 47595, 47982, 47815, 47917, 47496, 47886, 48033, 47858, 48146, 47729, 47615, 47164, 46771, 47599, 47226, 46805, 47763, 47851, 47391, 47389, 47311, 47203, 47367, 47492, 47325, 47210, 47532, 47464, 47728, 47096, 47372, 47647, 47428, 47594, 48026, 47239, 47596, 47300, 47544, 47461, 47324, 47478, 47704, 47660, 47610, 47539, 47794, 48310, 48530, 48166, 48691, 48263, 47812, 48346, 47834, 47356, 47791, 47227, 47565, 47548, 47587, 47543, 47520, 47597, 47208, 47059, 47061, 47229, 47370, 47309, 47530, 47420, 47434, 47311, 47402, 47215, 47186, 46920, 46797, 47879, 47316, 47094, 48022, 47588, 48065, 47625, 47407, 47635, 47778, 47736, 47690, 47931, 47660, 47752, 48013, 47743, 48039, 48901, 47756, 48377, 47946, 48350, 48322, 48593, 48524, 48319, 48573, 48551, 48644, 48096, 48502, 47993, 47736, 48518, 47462, 48172, 48031, 47531, 48220, 47475, 48255, 48247, 47292, 48071, 47796, 48751, 48091, 47623, 48078, 48693, 48637, 47925, 48453, 47743, 47650, 48663, 47619, 48402, 48023, 47622, 48187, 47399, 48103, 48343, 47190, 47857, 47980, 47627, 47991, 47995, 47112, 47766, 47585, 47158, 47813, 47608, 47771, 47511, 47906, 47213, 47258, 47539],
      "WindowCenter": [11143.0, 11119.0, 11124.0, 11098.0, 11116.0, 11073.0, 11033.0, 11044.0, 11050.0, 11026.0, 11049.0, 11039.0, 11012.0, 11024.0, 11037.0, 11071.0, 11091.0, 11086.0, 11075.0, 11070.0, 11058.0, 11060.0, 11058.0, 11049.0, 11049.0, 11065.0, 11059.0, 11057.0, 11050.0, 11042.0, 11042.0, 11037.0, 11047.0, 11055.0, 11057.0, 11058.0, 11060.0, 11055.0, 11064.0, 11066.0, 11074.0, 11073.0, 11065.0, 11054.0, 11047.0, 11063.0, 11082.0, 11058.0, 11037.0, 11029.0, 11043.0, 11059.0, 11062.0, 11045.0, 11019.0, 11017.0, 11023.0, 11044.0, 11074.0, 11064.0, 11049.0, 11047.0, 11059.0, 11057.0, 11059.0, 11050.0, 11046.0, 11057.0, 11068.0, 11053.0, 11048.0, 11050.0, 11056.0, 11080.0, 11080.0, 11068.0, 11048.0, 11048.0, 11083.0, 11092.0, 11051.0, 11059.0, 11091.0, 11096.0, 11072.0, 11050.0, 11051.0, 11075.0, 11113.0, 11115.0, 11107.0, 11070.0, 11039.0, 11048.0, 11060.0, 11074.0, 11078.0, 11083.0, 11083.0, 11060.0, 11041.0, 11058.0, 11052.0, 11043.0, 11037.0, 11031.0, 11049.0, 11048.0, 11033.0, 11023.0, 11017.0, 11032.0, 11042.0, 11035.0, 11018.0, 11027.0, 11052.0, 11061.0, 11060.0, 11027.0, 11031.0, 11040.0, 11048.0, 11030.0, 11021.0, 11010.0, 11018.0, 11074.0, 11064.0, 11043.0, 11037.0, 11049.0, 11072.0, 11054.0, 11030.0, 11024.0, 11049.0, 11044.0, 11031.0, 11034.0, 11040.0, 11042.0, 11036.0, 11021.0, 11055.0, 11069.0, 11077.0, 11043.0, 11045.0, 11067.0, 11075.0, 11075.0, 11056.0, 11048.0, 11043.0, 11080.0, 11079.0, 11047.0, 11055.0, 11057.0, 11078.0, 11064.0, 11038.0, 11060.0, 11080.0, 11098.0, 11071.0, 11022.0, 11035.0, 11067.0, 11103.0, 11089.0, 11074.0, 11073.0, 11062.0, 11058.0, 11043.0, 11051.0, 11038.0, 11029.0, 11046.0, 11030.0, 11035.0, 11028.0, 11019.0, 11042.0, 11033.0, 11038.0, 11052.0, 11043.0, 11056.0, 11067.0, 11054.0, 11063.0, 11065.0, 11037.0, 11053.0, 11073.0, 11055.0, 11058.0, 11061.0, 11052.0, 11052.0, 11056.0, 11035.0, 11031.0, 11063.0],
      "WindowWidth": [24007.0, 23916.0, 23910.0, 23839.0, 23873.0, 23778.0, 23683.0, 23701.0, 23717.0, 23661.0, 23714.0, 23693.0, 23627.0, 23652.0, 23684.0, 23765.0, 23811.0, 23804.0, 23780.0, 23765.0, 23736.0, 23742.0, 23736.0, 23714.0, 23714.0, 23750.0, 23736.0, 23731.0, 23715.0, 23698.0, 23696.0, 23684.0, 23706.0, 23724.0, 23733.0, 23735.0, 23737.0, 23727.0, 23747.0, 23756.0, 23770.0, 23767.0, 23749.0, 23721.0, 23711.0, 23741.0, 23786.0, 23731.0, 23681.0, 23671.0, 23693.0, 23730.0, 23739.0, 23700.0, 23642.0, 23635.0, 23652.0, 23701.0, 23772.0, 23751.0, 23716.0, 23708.0, 23735.0, 23731.0, 23738.0, 23715.0, 23704.0, 23727.0, 23756.0, 23722.0, 23708.0, 23716.0, 23726.0, 23779.0, 23782.0, 23754.0, 23708.0, 23705.0, 23787.0, 23809.0, 23715.0, 23736.0, 23805.0, 23819.0, 23763.0, 23712.0, 23715.0, 23772.0, 23864.0, 23864.0, 23843.0, 23758.0, 23683.0, 23700.0, 23731.0, 23760.0, 23774.0, 23783.0, 23790.0, 23734.0, 23689.0, 23730.0, 23718.0, 23697.0, 23679.0, 23668.0, 23708.0, 23706.0, 23670.0, 23648.0, 23641.0, 23669.0, 23692.0, 23677.0, 23639.0, 23654.0, 23717.0, 23735.0, 23744.0, 23659.0, 23664.0, 23692.0, 23710.0, 23667.0, 23641.0, 23619.0, 23638.0, 23766.0, 23745.0, 23696.0, 23686.0, 23708.0, 23764.0, 23724.0, 23669.0, 23649.0, 23709.0, 23695.0, 23664.0, 23673.0, 23680.0, 23688.0, 23674.0, 23640.0, 23720.0, 23753.0, 23773.0, 23694.0, 23693.0, 23749.0, 23766.0, 23765.0, 23722.0, 23703.0, 23695.0, 23774.0, 23778.0, 23702.0, 23714.0, 23722.0, 23770.0, 23739.0, 23680.0, 23725.0, 23774.0, 23817.0, 23754.0, 23642.0, 23671.0, 23742.0, 23827.0, 23796.0, 23760.0, 23760.0, 23735.0, 23722.0, 23691.0, 23705.0, 23681.0, 23658.0, 23693.0, 23665.0, 23672.0, 23659.0, 23638.0, 23690.0, 23674.0, 23684.0, 23714.0, 23698.0, 23724.0, 23752.0, 23724.0, 23739.0, 23747.0, 23686.0, 23717.0, 23766.0, 23725.0, 23731.0, 23736.0, 23715.0, 23714.0, 23721.0, 23675.0, 23667.0, 23738.0]
    },
    "slices": {}
  }
}