{
  "AcquisitionMatrixPE": 104,
  "AcquisitionNumber": 1,
  "AcquisitionTime": "11:23:46.010000",
  "B0FieldSource": "sub-02_ses-005_task-gamepad_run-01_part-mag_bold.nii.gz",
  "BandwidthPerPixelPhaseEncode": 17.17,
  "BaseResolution": 104,
  "BodyPartExamined": "BRAIN",
  "CoilCombinationMethod": "Sum of Squares",
  "ConsistencyInfo": "N4_VE11C_LATEST_20160120",
  "ConversionSoftware": "dcm2niix",
  "ConversionSoftwareVersion": "v1.0.20211006",
  "DerivedVendorReportedEchoSpacing": 0.000560011,
  "DeviceSerialNumber": "167006",
  "DwellTime": 2.1e-06,
  "EchoTime": 0.037,
  "EchoTrainLength": 104,
  "EffectiveEchoSpacing": 0.000560011,
  "FlipAngle": 52,
  "HeudiconvVersion": "0.10.0",
  "ImageComments": "Unaliased MB4/PE3/LB",
  "ImageOrientationPatientDICOM": [0.99965, 0.0145514, 0.0221039, -0.000697929, 0.849461, -0.527652],
  "ImageOrientationText": "Tra>Cor(-31.8)>Sag(1.5)",
  "ImageType": [
    "ORIGINAL",
    "PRIMARY",
    "M",
    "MB",
    "ND",
    "MOSAIC"
],
  "ImagingFrequency": 123.259,
  "InPlanePhaseEncodingDirectionDICOM": "COL",
  "InstitutionAddress": "Chemin Queen-Mary 4565,Montreal,District,CA,H3W 1W5",
  "InstitutionName": "IUGM",
  "InstitutionalDepartmentName": "Department",
  "MRAcquisitionType": "2D",
  "MagneticFieldStrength": 3,
  "Manufacturer": "Siemens",
  "ManufacturersModelName": "Prisma_fit",
  "MatrixCoilMode": "SENSE",
  "Modality": "MR",
  "MultibandAccelerationFactor": 4,
  "PartialFourier": 1,
  "PatientPosition": "HFS",
  "PercentPhaseFOV": 100,
  "PercentSampling": 100,
  "PhaseEncodingDirection": "j",
  "PhaseEncodingSteps": 104,
  "PhaseResolution": 1,
  "PixelBandwidth": 2290,
  "ProcedureStepDescription": "games^gamepad",
  "ProtocolName": "func_task-gamepad_run-1",
  "PulseSequenceDetails": "%CustomerSeq%\\cmrr_mbep2d_bold",
  "ReceiveCoilActiveElements": "HC1-7;NC1,2",
  "ReceiveCoilName": "HeadNeck_64",
  "ReconMatrixPE": 104,
  "RepetitionTime": 1.49,
  "SAR": 0.072621,
  "ScanOptions": "FS",
  "ScanningSequence": "EP",
  "SequenceName": "epfid2d1_104",
  "SequenceVariant": "SK\\SS",
  "SeriesDescription": "func_task-gamepad_run-1",
  "SeriesNumber": 10,
  "ShimSetting": [617, -7188, -8875, 260, 24, -156, -20, 7],
  "SliceThickness": 2,
  "SliceTiming": [0, 0.785, 0.1, 0.8825, 0.1975, 0.98, 0.295, 1.08, 0.3925, 1.1775, 0.49, 1.275, 0.59, 1.3725, 0.6875, 0, 0.785, 0.1, 0.8825, 0.1975, 0.98, 0.295, 1.08, 0.3925, 1.1775, 0.49, 1.275, 0.59, 1.3725, 0.6875, 0, 0.785, 0.1, 0.8825, 0.1975, 0.98, 0.295, 1.08, 0.3925, 1.1775, 0.49, 1.275, 0.59, 1.3725, 0.6875, 0, 0.785, 0.1, 0.8825, 0.1975, 0.98, 0.295, 1.08, 0.3925, 1.1775, 0.49, 1.275, 0.59, 1.3725, 0.6875],
  "SoftwareVersions": "syngo MR E11",
  "SpacingBetweenSlices": 2,
  "StationName": "MRC35049",
  "TaskName": "gamepad",
  "TotalReadoutTime": 0.0576811,
  "TxRefAmp": 300.429,
  "WipMemBlock": "f9b723b9-31ee-4045-a192-ea58c2047e6a||Sequence: R016 ve11c/master r/e634e98; Dec 19 2017 11:00:25 by eja",
  "dcmmeta_affine": [
    [-1.9992995262145996, -0.0013958571944385767, 0.052908942103385925, 105.38915252685547],
    [-0.029102817177772522, 1.6989210844039917, -1.0549029111862183, -48.022579193115234],
    [0.04420781135559082, 1.0553033351898193, 1.6983463764190674, -100.9200668334961],
    [0.0, 0.0, 0.0, 1.0]
],
  "dcmmeta_reorient_transform": [
    [0.0, -1.0, 0.0, 103.0],
    [1.0, 0.0, 0.0, 0.0],
    [0.0, 0.0, 1.0, 0.0],
    [0.0, 0.0, 0.0, 1.0]
],
  "dcmmeta_shape": [104, 104, 60, 207],
  "dcmmeta_slice_dim": 2,
  "dcmmeta_version": 0.6,
  "global": {
    "const": {
      "AcquisitionMatrix": [104, 0, 0, 104],
      "AngioFlag": "N",
      "BitsAllocated": 16,
      "BitsStored": 16,
      "BodyPartExamined": "BRAIN",
      "Columns": 832,
      "EchoNumbers": 1,
      "EchoTime": 37.0,
      "EchoTrainLength": 104,
      "FlipAngle": 52.0,
      "HighBit": 15,
      "ImageOrientationPatient": [0.99964977559316, 0.01455140851401, 0.02210390614374, -0.0006979286171, 0.84946054478967, -0.5276516803169],
      "ImagePositionPatient": [-832.48232420584, -755.96699589939, 375.81495923271],
      "ImageType": [
        "ORIGINAL",
        "PRIMARY",
        "M",
        "MB",
        "ND",
        "MOSAIC"
],
      "ImagedNucleus": "1H",
      "ImagingFrequency": 123.259099,
      "InPlanePhaseEncodingDirection": "COL",
      "MRAcquisitionType": "2D",
      "MagneticFieldStrength": 3.0,
      "Manufacturer": "SIEMENS",
      "ManufacturerModelName": "Prisma_fit",
      "Modality": "MR",
      "NumberOfAverages": 1.0,
      "NumberOfPhaseEncodingSteps": 104,
      "PercentPhaseFieldOfView": 100.0,
      "PercentSampling": 100.0,
      "PerformedProcedureStepStartTime": "112017.867000",
      "PhotometricInterpretation": "MONOCHROME2",
      "PixelBandwidth": 2290.0,
      "PixelRepresentation": 0,
      "PixelSpacing": [2.0, 2.0],
      "ProtocolName": "func_task-gamepad_run-1",
      "RepetitionTime": 1490.0,
      "Rows": 832,
      "SAR": 0.07262098195602,
      "SamplesPerPixel": 1,
      "ScanOptions": "FS",
      "ScanningSequence": "EP",
      "SequenceName": "epfid2d1_104",
      "SequenceVariant": [
        "SK",
        "SS"
],
      "SeriesDescription": "func_task-gamepad_run-1",
      "SeriesNumber": 10,
      "SeriesTime": "112517.060000",
      "SliceLocation": -57.581022478074,
      "SliceThickness": 2.0,
      "SmallestImagePixelValue": 0,
      "SoftwareVersions": "syngo MR E11",
      "SpacingBetweenSlices": 2.0000000057405,
      "SpecificCharacterSet": "ISO_IR 100",
      "StudyID": "1",
      "StudyTime": "112017.760000",
      "TransmitCoilName": "Body",
      "VariableFlipAngleFlag": "N",
      "WindowCenterWidthExplanation": "Algo1",
      "dBdt": 0.0},
    "slices": {}
  },
  "time": {
    "samples": {
      "AcquisitionNumber": [1, 2, 3, 4, 5, 6, 7, 8, 9, 10, 11, 12, 13, 14, 15, 16, 17, 18, 19, 20, 21, 22, 23, 24, 25, 26, 27, 28, 29, 30, 31, 32, 33, 34, 35, 36, 37, 38, 39, 40, 41, 42, 43, 44, 45, 46, 47, 48, 49, 50, 51, 52, 53, 54, 55, 56, 57, 58, 59, 60, 61, 62, 63, 64, 65, 66, 67, 68, 69, 70, 71, 72, 73, 74, 75, 76, 77, 78, 79, 80, 81, 82, 83, 84, 85, 86, 87, 88, 89, 90, 91, 92, 93, 94, 95, 96, 97, 98, 99, 100, 101, 102, 103, 104, 105, 106, 107, 108, 109, 110, 111, 112, 113, 114, 115, 116, 117, 118, 119, 120, 121, 122, 123, 124, 125, 126, 127, 128, 129, 130, 131, 132, 133, 134, 135, 136, 137, 138, 139, 140, 141, 142, 143, 144, 145, 146, 147, 148, 149, 150, 151, 152, 153, 154, 155, 156, 157, 158, 159, 160, 161, 162, 163, 164, 165, 166, 167, 168, 169, 170, 171, 172, 173, 174, 175, 176, 177, 178, 179, 180, 181, 182, 183, 184, 185, 186, 187, 188, 189, 190, 191, 192, 193, 194, 195, 196, 197, 198, 199, 200, 201, 202, 203, 204, 205, 206, 207],
      "AcquisitionTime": ["112346.010000", "112347.500000", "112348.990000", "112350.480000", "112351.970000", "112353.460000", "112354.950000", "112356.440000", "112357.930000", "112359.420000", "112400.910000", "112402.400000", "112403.890000", "112405.380000", "112406.870000", "112408.360000", "112409.850000", "112411.340000", "112412.830000", "112414.320000", "112415.810000", "112417.300000", "112418.790000", "112420.280000", "112421.770000", "112423.260000", "112424.750000", "112426.240000", "112427.730000", "112429.220000", "112430.710000", "112432.200000", "112433.690000", "112435.180000", "112436.670000", "112438.160000", "112439.650000", "112441.140000", "112442.630000", "112444.120000", "112445.610000", "112447.100000", "112448.590000", "112450.080000", "112451.570000", "112453.060000", "112454.550000", "112456.040000", "112457.530000", "112459.020000", "112500.510000", "112502.000000", "112503.490000", "112504.980000", "112506.470000", "112507.960000", "112509.450000", "112510.940000", "112512.430000", "112513.920000", "112515.410000", "112516.900000", "112518.390000", "112519.880000", "112521.370000", "112522.860000", "112524.350000", "112525.840000", "112527.330000", "112528.820000", "112530.310000", "112531.800000", "112533.290000", "112534.780000", "112536.270000", "112537.760000", "112539.250000", "112540.740000", "112542.230000", "112543.720000", "112545.210000", "112546.700000", "112548.190000", "112549.680000", "112551.170000", "112552.660000", "112554.150000", "112555.640000", "112557.130000", "112558.620000", "112600.110000", "112601.600000", "112603.090000", "112604.580000", "112606.070000", "112607.560000", "112609.050000", "112610.540000", "112612.030000", "112613.520000", "112615.010000", "112616.500000", "112617.990000", "112619.480000", "112620.970000", "112622.460000", "112623.950000", "112625.440000", "112626.930000", "112628.420000", "112629.910000", "112631.400000", "112632.890000", "112634.380000", "112635.870000", "112637.360000", "112638.850000", "112640.340000", "112641.830000", "112643.320000", "112644.810000", "112646.300000", "112647.790000", "112649.280000", "112650.770000", "112652.260000", "112653.750000", "112655.240000", "112656.730000", "112658.220000", "112659.710000", "112701.200000", "112702.690000", "112704.180000", "112705.670000", "112707.160000", "112708.650000", "112710.140000", "112711.630000", "112713.120000", "112714.610000", "112716.100000", "112717.590000", "112719.080000", "112720.570000", "112722.060000", "112723.550000", "112725.040000", "112726.530000", "112728.020000", "112729.510000", "112731.000000", "112732.490000", "112733.980000", "112735.470000", "112736.960000", "112738.450000", "112739.940000", "112741.430000", "112742.920000", "112744.410000", "112745.900000", "112747.390000", "112748.880000", "112750.370000", "112751.860000", "112753.350000", "112754.840000", "112756.330000", "112757.820000", "112759.310000", "112800.800000", "112802.290000", "112803.780000", "112805.270000", "112806.760000", "112808.250000", "112809.740000", "112811.230000", "112812.720000", "112814.210000", "112815.700000", "112817.190000", "112818.680000", "112820.170000", "112821.660000", "112823.150000", "112824.640000", "112826.130000", "112827.620000", "112829.110000", "112830.600000", "112832.090000", "112833.580000", "112835.070000", "112836.560000", "112838.050000", "112839.540000", "112841.030000", "112842.520000", "112844.010000", "112845.500000", "112846.990000", "112848.480000", "112849.970000", "112851.460000", "112852.950000"],
      "ContentTime": ["112517.063000", "112517.067000", "112517.070000", "112517.073000", "112517.077000", "112517.080000", "112517.083000", "112517.087000", "112517.090000", "112517.093000", "112517.097000", "112517.100000", "112517.108000", "112517.112000", "112517.115000", "112517.119000", "112517.122000", "112517.126000", "112517.129000", "112517.132000", "112517.135000", "112517.139000", "112517.142000", "112517.145000", "112517.149000", "112517.152000", "112517.155000", "112517.159000", "112517.162000", "112517.165000", "112517.169000", "112517.172000", "112517.175000", "112517.178000", "112517.182000", "112517.185000", "112517.194000", "112537.034000", "112537.038000", "112537.041000", "112537.044000", "112537.048000", "112537.051000", "112537.054000", "112537.057000", "112537.061000", "112537.064000", "112537.067000", "112537.070000", "112537.074000", "112537.077000", "112537.080000", "112537.083000", "112537.087000", "112537.090000", "112537.093000", "112537.096000", "112557.034000", "112557.038000", "112557.041000", "112557.044000", "112557.048000", "112557.051000", "112557.054000", "112557.057000", "112557.061000", "112557.064000", "112557.067000", "112557.071000", "112557.074000", "112557.077000", "112557.080000", "112557.084000", "112557.087000", "112557.090000", "112557.093000", "112557.097000", "112617.033000", "112617.037000", "112617.040000", "112617.043000", "112617.048000", "112617.053000", "112617.056000", "112617.059000", "112617.063000", "112617.066000", "112617.078000", "112617.082000", "112617.095000", "112617.098000", "112617.102000", "112617.105000", "112617.109000", "112617.112000", "112617.116000", "112617.119000", "112657.034000", "112657.038000", "112657.041000", "112657.044000", "112657.048000", "112657.051000", "112657.054000", "112657.057000", "112657.061000", "112657.064000", "112657.067000", "112657.070000", "112657.074000", "112657.077000", "112657.080000", "112657.084000", "112657.087000", "112657.090000", "112657.094000", "112657.097000", "112657.101000", "112657.104000", "112657.108000", "112657.111000", "112657.114000", "112657.117000", "112657.121000", "112657.124000", "112657.127000", "112657.131000", "112737.034000", "112737.038000", "112737.041000", "112737.044000", "112737.048000", "112737.051000", "112737.054000", "112737.057000", "112737.061000", "112737.064000", "112737.067000", "112737.071000", "112737.074000", "112737.078000", "112737.081000", "112737.084000", "112737.088000", "112737.091000", "112737.094000", "112737.098000", "112737.101000", "112737.104000", "112737.108000", "112737.111000", "112737.114000", "112737.117000", "112737.121000", "112817.034000", "112817.038000", "112817.041000", "112817.045000", "112817.048000", "112817.052000", "112817.055000", "112817.058000", "112817.062000", "112817.065000", "112817.068000", "112817.072000", "112817.075000", "112817.078000", "112817.081000", "112817.085000", "112817.088000", "112817.091000", "112817.095000", "112817.098000", "112817.101000", "112817.104000", "112817.108000", "112817.111000", "112817.114000", "112817.118000", "112817.121000", "112855.259000", "112855.263000", "112855.267000", "112855.270000", "112855.274000", "112855.277000", "112855.280000", "112855.284000", "112855.287000", "112855.290000", "112855.294000", "112855.297000", "112855.300000", "112855.304000", "112855.307000", "112855.310000", "112855.314000", "112855.317000", "112855.321000", "112855.324000", "112855.327000", "112855.331000", "112855.334000", "112855.337000", "112855.341000", "112855.344000"],
      "InstanceCreationTime": ["112517.063000", "112517.067000", "112517.070000", "112517.073000", "112517.077000", "112517.080000", "112517.083000", "112517.087000", "112517.090000", "112517.093000", "112517.097000", "112517.100000", "112517.108000", "112517.112000", "112517.115000", "112517.119000", "112517.122000", "112517.126000", "112517.129000", "112517.132000", "112517.135000", "112517.139000", "112517.142000", "112517.145000", "112517.149000", "112517.152000", "112517.155000", "112517.159000", "112517.162000", "112517.165000", "112517.169000", "112517.172000", "112517.175000", "112517.178000", "112517.182000", "112517.185000", "112517.194000", "112537.034000", "112537.038000", "112537.041000", "112537.044000", "112537.048000", "112537.051000", "112537.054000", "112537.057000", "112537.061000", "112537.064000", "112537.067000", "112537.070000", "112537.074000", "112537.077000", "112537.080000", "112537.083000", "112537.087000", "112537.090000", "112537.093000", "112537.096000", "112557.034000", "112557.038000", "112557.041000", "112557.044000", "112557.048000", "112557.051000", "112557.054000", "112557.057000", "112557.061000", "112557.064000", "112557.067000", "112557.071000", "112557.074000", "112557.077000", "112557.080000", "112557.084000", "112557.087000", "112557.090000", "112557.093000", "112557.097000", "112617.033000", "112617.037000", "112617.040000", "112617.043000", "112617.048000", "112617.053000", "112617.056000", "112617.059000", "112617.063000", "112617.066000", "112617.078000", "112617.082000", "112617.095000", "112617.098000", "112617.102000", "112617.105000", "112617.109000", "112617.112000", "112617.116000", "112617.119000", "112657.034000", "112657.038000", "112657.041000", "112657.044000", "112657.048000", "112657.051000", "112657.054000", "112657.057000", "112657.061000", "112657.064000", "112657.067000", "112657.070000", "112657.074000", "112657.077000", "112657.080000", "112657.084000", "112657.087000", "112657.090000", "112657.094000", "112657.097000", "112657.101000", "112657.104000", "112657.108000", "112657.111000", "112657.114000", "112657.117000", "112657.121000", "112657.124000", "112657.127000", "112657.131000", "112737.034000", "112737.038000", "112737.041000", "112737.044000", "112737.048000", "112737.051000", "112737.054000", "112737.057000", "112737.061000", "112737.064000", "112737.067000", "112737.071000", "112737.074000", "112737.078000", "112737.081000", "112737.084000", "112737.088000", "112737.091000", "112737.094000", "112737.098000", "112737.101000", "112737.104000", "112737.108000", "112737.111000", "112737.114000", "112737.117000", "112737.121000", "112817.034000", "112817.038000", "112817.041000", "112817.045000", "112817.048000", "112817.052000", "112817.055000", "112817.058000", "112817.062000", "112817.065000", "112817.068000", "112817.072000", "112817.075000", "112817.078000", "112817.081000", "112817.085000", "112817.088000", "112817.091000", "112817.095000", "112817.098000", "112817.101000", "112817.104000", "112817.108000", "112817.111000", "112817.114000", "112817.118000", "112817.121000", "112855.259000", "112855.263000", "112855.267000", "112855.270000", "112855.274000", "112855.277000", "112855.280000", "112855.284000", "112855.287000", "112855.290000", "112855.294000", "112855.297000", "112855.300000", "112855.304000", "112855.307000", "112855.310000", "112855.314000", "112855.317000", "112855.321000", "112855.324000", "112855.327000", "112855.331000", "112855.334000", "112855.337000", "112855.341000", "112855.344000"],
      "InstanceNumber": [1, 2, 3, 4, 5, 6, 7, 8, 9, 10, 11, 12, 13, 14, 15, 16, 17, 18, 19, 20, 21, 22, 23, 24, 25, 26, 27, 28, 29, 30, 31, 32, 33, 34, 35, 36, 37, 38, 39, 40, 41, 42, 43, 44, 45, 46, 47, 48, 49, 50, 51, 52, 53, 54, 55, 56, 57, 58, 59, 60, 61, 62, 63, 64, 65, 66, 67, 68, 69, 70, 71, 72, 73, 74, 75, 76, 77, 78, 79, 80, 81, 82, 83, 84, 85, 86, 87, 88, 89, 90, 91, 92, 93, 94, 95, 96, 97, 98, 99, 100, 101, 102, 103, 104, 105, 106, 107, 108, 109, 110, 111, 112, 113, 114, 115, 116, 117, 118, 119, 120, 121, 122, 123, 124, 125, 126, 127, 128, 129, 130, 131, 132, 133, 134, 135, 136, 137, 138, 139, 140, 141, 142, 143, 144, 145, 146, 147, 148, 149, 150, 151, 152, 153, 154, 155, 156, 157, 158, 159, 160, 161, 162, 163, 164, 165, 166, 167, 168, 169, 170, 171, 172, 173, 174, 175, 176, 177, 178, 179, 180, 181, 182, 183, 184, 185, 186, 187, 188, 189, 190, 191, 192, 193, 194, 195, 196, 197, 198, 199, 200, 201, 202, 203, 204, 205, 206, 207],
      "LargestImagePixelValue": [47059, 45882, 46146, 46182, 45675, 45754, 44840, 45948, 47515, 44868, 46512, 46241, 44607, 45823, 45098, 45682, 45389, 46387, 45317, 45333, 46019, 45580, 45093, 46489, 46379, 46794, 45621, 48165, 45256, 46698, 45483, 46620, 47012, 45001, 46320, 46079, 46720, 46172, 46502, 46911, 45511, 46078, 46481, 45873, 46180, 46981, 47138, 46831, 45927, 47122, 45376, 46431, 46248, 46839, 46222, 46273, 46145, 45718, 46978, 46247, 46082, 46299, 45193, 45674, 45278, 45115, 46141, 46248, 46196, 46803, 46632, 46260, 45568, 46861, 45910, 46464, 46749, 44635, 45867, 46109, 45714, 46305, 45882, 46232, 45053, 46250, 46035, 45930, 46194, 45278, 46565, 45283, 46417, 45482, 46552, 45935, 45724, 47188, 46413, 46578, 45798, 45824, 45741, 45837, 46371, 44762, 45757, 45279, 46425, 46493, 45828, 45398, 44606, 45540, 44666, 45864, 45243, 45732, 46424, 46381, 46842, 45434, 46075, 45396, 46098, 46720, 45077, 47352, 46088, 46476, 46717, 45495, 46454, 45970, 45702, 46588, 45902, 47192, 46146, 45791, 46755, 45638, 46014, 46407, 45748, 46154, 45202, 46541, 45267, 46624, 46716, 46087, 46448, 45427, 46879, 46142, 46935, 46529, 46235, 45970, 45287, 46125, 45256, 46614, 46668, 46026, 46577, 45784, 46786, 46116, 46339, 46851, 46147, 46995, 45647, 47091, 45904, 45992, 46655, 45240, 46671, 45898, 46608, 46843, 45463, 46803, 45423, 46198, 46631, 45827, 46828, 45671, 46513, 46228, 45939, 46177, 45158, 46535, 45084, 45877, 46374, 45721, 46913, 46551, 46773, 46776, 46464],
      "WindowCenter": [11201.0, 11133.0, 11137.0, 11136.0, 11187.0, 11146.0, 11126.0, 11141.0, 11134.0, 11093.0, 11092.0, 11071.0, 11056.0, 11088.0, 11095.0, 11119.0, 11121.0, 11124.0, 11141.0, 11164.0, 11146.0, 11128.0, 11103.0, 11101.0, 11107.0, 11110.0, 11113.0, 11187.0, 11122.0, 11111.0, 11116.0, 11122.0, 11110.0, 11096.0, 11076.0, 11045.0, 11059.0, 11067.0, 11082.0, 11096.0, 11099.0, 11106.0, 11098.0, 11083.0, 11078.0, 11098.0, 11097.0, 11101.0, 11102.0, 11109.0, 11107.0, 11141.0, 11149.0, 11097.0, 11094.0, 11132.0, 11127.0, 11108.0, 11099.0, 11093.0, 11104.0, 11099.0, 11092.0, 11108.0, 11107.0, 11105.0, 11088.0, 11084.0, 11109.0, 11189.0, 11129.0, 11104.0, 11094.0, 11116.0, 11110.0, 11125.0, 11111.0, 11081.0, 11108.0, 11108.0, 11090.0, 11117.0, 11128.0, 11126.0, 11095.0, 11094.0, 11112.0, 11133.0, 11136.0, 11106.0, 11120.0, 11111.0, 11105.0, 11097.0, 11136.0, 11153.0, 11135.0, 11122.0, 11158.0, 11160.0, 11166.0, 11171.0, 11141.0, 11114.0, 11142.0, 11162.0, 11149.0, 11111.0, 11104.0, 11131.0, 11166.0, 11155.0, 11117.0, 11095.0, 11136.0, 11145.0, 11156.0, 11132.0, 11117.0, 11108.0, 11145.0, 11151.0, 11148.0, 11135.0, 11147.0, 11194.0, 11091.0, 11135.0, 11131.0, 11125.0, 11117.0, 11117.0, 11110.0, 11116.0, 11116.0, 11135.0, 11134.0, 11139.0, 11125.0, 11127.0, 11142.0, 11138.0, 11146.0, 11142.0, 11145.0, 11143.0, 11126.0, 11133.0, 11085.0, 11097.0, 11129.0, 11158.0, 11157.0, 11116.0, 11094.0, 11103.0, 11128.0, 11146.0, 11157.0, 11176.0, 11187.0, 11157.0, 11115.0, 11089.0, 11094.0, 11137.0, 11129.0, 11090.0, 11125.0, 11108.0, 11095.0, 11082.0, 11081.0, 11102.0, 11103.0, 11123.0, 11148.0, 11117.0, 11106.0, 11095.0, 11107.0, 11103.0, 11118.0, 11116.0, 11108.0, 11128.0, 11111.0, 11114.0, 11105.0, 11087.0, 11115.0, 11104.0, 11090.0, 11104.0, 11149.0, 11154.0, 11146.0, 11133.0, 11117.0, 11119.0, 11112.0, 11109.0, 11117.0, 11112.0, 11111.0, 11119.0, 11130.0],
      "WindowWidth": [24138.0, 23947.0, 23933.0, 23917.0, 24035.0, 23933.0, 23889.0, 23917.0, 23895.0, 23813.0, 23808.0, 23754.0, 23726.0, 23793.0, 23813.0, 23867.0, 23872.0, 23877.0, 23916.0, 23971.0, 23924.0, 23886.0, 23828.0, 23820.0, 23832.0, 23837.0, 23851.0, 24015.0, 23878.0, 23840.0, 23861.0, 23869.0, 23835.0, 23811.0, 23761.0, 23691.0, 23718.0, 23742.0, 23774.0, 23804.0, 23817.0, 23831.0, 23812.0, 23780.0, 23767.0, 23816.0, 23809.0, 23819.0, 23825.0, 23838.0, 23839.0, 23913.0, 23935.0, 23807.0, 23804.0, 23892.0, 23882.0, 23839.0, 23812.0, 23799.0, 23826.0, 23812.0, 23800.0, 23838.0, 23838.0, 23833.0, 23792.0, 23777.0, 23836.0, 24029.0, 23886.0, 23824.0, 23804.0, 23847.0, 23841.0, 23875.0, 23841.0, 23778.0, 23838.0, 23837.0, 23794.0, 23856.0, 23884.0, 23878.0, 23808.0, 23801.0, 23842.0, 23896.0, 23903.0, 23836.0, 23860.0, 23844.0, 23830.0, 23816.0, 23895.0, 23938.0, 23907.0, 23865.0, 23954.0, 23956.0, 23970.0, 23985.0, 23915.0, 23850.0, 23910.0, 23960.0, 23931.0, 23847.0, 23822.0, 23883.0, 23969.0, 23944.0, 23860.0, 23806.0, 23903.0, 23921.0, 23948.0, 23891.0, 23853.0, 23831.0, 23914.0, 23933.0, 23926.0, 23896.0, 23921.0, 24034.0, 23797.0, 23889.0, 23884.0, 23868.0, 23849.0, 23852.0, 23834.0, 23848.0, 23850.0, 23888.0, 23891.0, 23906.0, 23868.0, 23874.0, 23904.0, 23902.0, 23920.0, 23909.0, 23915.0, 23913.0, 23875.0, 23885.0, 23781.0, 23800.0, 23879.0, 23947.0, 23944.0, 23856.0, 23798.0, 23817.0, 23871.0, 23916.0, 23944.0, 23997.0, 24017.0, 23945.0, 23853.0, 23783.0, 23791.0, 23895.0, 23876.0, 23786.0, 23863.0, 23828.0, 23805.0, 23767.0, 23763.0, 23809.0, 23816.0, 23859.0, 23926.0, 23852.0, 23820.0, 23803.0, 23824.0, 23816.0, 23851.0, 23847.0, 23833.0, 23878.0, 23841.0, 23844.0, 23819.0, 23784.0, 23842.0, 23826.0, 23790.0, 23824.0, 23929.0, 23940.0, 23925.0, 23889.0, 23855.0, 23857.0, 23838.0, 23835.0, 23850.0, 23838.0, 23836.0, 23852.0, 23882.0]
    },
    "slices": {}
  }
}