{
  "AcquisitionMatrixPE": 104,
  "AcquisitionNumber": 1,
  "AcquisitionTime": "11:30:19.957500",
  "B0FieldSource": "sub-02_ses-005_task-gamepad_run-02_part-mag_bold.nii.gz",
  "BandwidthPerPixelPhaseEncode": 17.17,
  "BaseResolution": 104,
  "BodyPartExamined": "BRAIN",
  "CoilCombinationMethod": "Sum of Squares",
  "ConsistencyInfo": "N4_VE11C_LATEST_20160120",
  "ConversionSoftware": "dcm2niix",
  "ConversionSoftwareVersion": "v1.0.20211006",
  "DerivedVendorReportedEchoSpacing": 0.000560011,
  "DeviceSerialNumber": "167006",
  "DwellTime": 2.1e-06,
  "EchoTime": 0.037,
  "EchoTrainLength": 104,
  "EffectiveEchoSpacing": 0.000560011,
  "FlipAngle": 52,
  "HeudiconvVersion": "0.10.0",
  "ImageComments": "Unaliased MB4/PE3/LB",
  "ImageOrientationPatientDICOM": [0.99965, 0.0145514, 0.0221039, -0.000697929, 0.849461, -0.527652],
  "ImageOrientationText": "Tra>Cor(-31.8)>Sag(1.5)",
  "ImageType": [
    "ORIGINAL",
    "PRIMARY",
    "M",
    "MB",
    "ND",
    "MOSAIC"
],
  "ImagingFrequency": 123.259,
  "InPlanePhaseEncodingDirectionDICOM": "COL",
  "InstitutionAddress": "Chemin Queen-Mary 4565,Montreal,District,CA,H3W 1W5",
  "InstitutionName": "IUGM",
  "InstitutionalDepartmentName": "Department",
  "MRAcquisitionType": "2D",
  "MagneticFieldStrength": 3,
  "Manufacturer": "Siemens",
  "ManufacturersModelName": "Prisma_fit",
  "MatrixCoilMode": "SENSE",
  "Modality": "MR",
  "MultibandAccelerationFactor": 4,
  "PartialFourier": 1,
  "PatientPosition": "HFS",
  "PercentPhaseFOV": 100,
  "PercentSampling": 100,
  "PhaseEncodingDirection": "j",
  "PhaseEncodingSteps": 104,
  "PhaseResolution": 1,
  "PixelBandwidth": 2290,
  "ProcedureStepDescription": "games^gamepad",
  "ProtocolName": "func_task-gamepad_run-2",
  "PulseSequenceDetails": "%CustomerSeq%\\cmrr_mbep2d_bold",
  "ReceiveCoilActiveElements": "HC1-7;NC1,2",
  "ReceiveCoilName": "HeadNeck_64",
  "ReconMatrixPE": 104,
  "RepetitionTime": 1.49,
  "SAR": 0.072621,
  "ScanOptions": "FS",
  "ScanningSequence": "EP",
  "SequenceName": "epfid2d1_104",
  "SequenceVariant": "SK\\SS",
  "SeriesDescription": "func_task-gamepad_run-2",
  "SeriesNumber": 13,
  "ShimSetting": [617, -7188, -8875, 260, 24, -156, -20, 7],
  "SliceThickness": 2,
  "SliceTiming": [0, 0.785, 0.0975, 0.8825, 0.195, 0.98, 0.295, 1.0775, 0.3925, 1.175, 0.49, 1.275, 0.5875, 1.3725, 0.685, 0, 0.785, 0.0975, 0.8825, 0.195, 0.98, 0.295, 1.0775, 0.3925, 1.175, 0.49, 1.275, 0.5875, 1.3725, 0.685, 0, 0.785, 0.0975, 0.8825, 0.195, 0.98, 0.295, 1.0775, 0.3925, 1.175, 0.49, 1.275, 0.5875, 1.3725, 0.685, 0, 0.785, 0.0975, 0.8825, 0.195, 0.98, 0.295, 1.0775, 0.3925, 1.175, 0.49, 1.275, 0.5875, 1.3725, 0.685],
  "SoftwareVersions": "syngo MR E11",
  "SpacingBetweenSlices": 2,
  "StationName": "MRC35049",
  "TaskName": "gamepad",
  "TotalReadoutTime": 0.0576811,
  "TxRefAmp": 300.429,
  "WipMemBlock": "5ad6e50e-8fef-4520-9e01-4531bff0f28d||Sequence: R016 ve11c/master r/e634e98; Dec 19 2017 11:00:25 by eja",
  "dcmmeta_affine": [
    [-1.9992995262145996, -0.0013958571944385767, 0.052908942103385925, 105.38915252685547],
    [-0.029102817177772522, 1.6989210844039917, -1.0549029111862183, -48.022579193115234],
    [0.04420781135559082, 1.0553033351898193, 1.6983463764190674, -100.9200668334961],
    [0.0, 0.0, 0.0, 1.0]
],
  "dcmmeta_reorient_transform": [
    [0.0, -1.0, 0.0, 103.0],
    [1.0, 0.0, 0.0, 0.0],
    [0.0, 0.0, 1.0, 0.0],
    [0.0, 0.0, 0.0, 1.0]
],
  "dcmmeta_shape": [104, 104, 60, 207],
  "dcmmeta_slice_dim": 2,
  "dcmmeta_version": 0.6,
  "global": {
    "const": {
      "AcquisitionMatrix": [104, 0, 0, 104],
      "AngioFlag": "N",
      "BitsAllocated": 16,
      "BitsStored": 16,
      "BodyPartExamined": "BRAIN",
      "Columns": 832,
      "EchoNumbers": 1,
      "EchoTime": 37.0,
      "EchoTrainLength": 104,
      "FlipAngle": 52.0,
      "HighBit": 15,
      "ImageOrientationPatient": [0.99964977559316, 0.01455140851401, 0.02210390614374, -0.0006979286171, 0.84946054478967, -0.5276516803169],
      "ImagePositionPatient": [-832.48232420584, -755.96699589939, 375.81495923271],
      "ImageType": [
        "ORIGINAL",
        "PRIMARY",
        "M",
        "MB",
        "ND",
        "MOSAIC"
],
      "ImagedNucleus": "1H",
      "ImagingFrequency": 123.259103,
      "InPlanePhaseEncodingDirection": "COL",
      "MRAcquisitionType": "2D",
      "MagneticFieldStrength": 3.0,
      "Manufacturer": "SIEMENS",
      "ManufacturerModelName": "Prisma_fit",
      "Modality": "MR",
      "NumberOfAverages": 1.0,
      "NumberOfPhaseEncodingSteps": 104,
      "PercentPhaseFieldOfView": 100.0,
      "PercentSampling": 100.0,
      "PerformedProcedureStepStartTime": "112017.867000",
      "PhotometricInterpretation": "MONOCHROME2",
      "PixelBandwidth": 2290.0,
      "PixelRepresentation": 0,
      "PixelSpacing": [2.0, 2.0],
      "ProtocolName": "func_task-gamepad_run-2",
      "RepetitionTime": 1490.0,
      "Rows": 832,
      "SAR": 0.07262098195602,
      "SamplesPerPixel": 1,
      "ScanOptions": "FS",
      "ScanningSequence": "EP",
      "SequenceName": "epfid2d1_104",
      "SequenceVariant": [
        "SK",
        "SS"
],
      "SeriesDescription": "func_task-gamepad_run-2",
      "SeriesNumber": 13,
      "SeriesTime": "113140.389000",
      "SliceLocation": -57.581022478074,
      "SliceThickness": 2.0,
      "SmallestImagePixelValue": 0,
      "SoftwareVersions": "syngo MR E11",
      "SpacingBetweenSlices": 2.0000000057405,
      "SpecificCharacterSet": "ISO_IR 100",
      "StudyID": "1",
      "StudyTime": "112017.760000",
      "TransmitCoilName": "Body",
      "VariableFlipAngleFlag": "N",
      "WindowCenterWidthExplanation": "Algo1",
      "dBdt": 0.0},
    "slices": {}
  },
  "time": {
    "samples": {
      "AcquisitionNumber": [1, 2, 3, 4, 5, 6, 7, 8, 9, 10, 11, 12, 13, 14, 15, 16, 17, 18, 19, 20, 21, 22, 23, 24, 25, 26, 27, 28, 29, 30, 31, 32, 33, 34, 35, 36, 37, 38, 39, 40, 41, 42, 43, 44, 45, 46, 47, 48, 49, 50, 51, 52, 53, 54, 55, 56, 57, 58, 59, 60, 61, 62, 63, 64, 65, 66, 67, 68, 69, 70, 71, 72, 73, 74, 75, 76, 77, 78, 79, 80, 81, 82, 83, 84, 85, 86, 87, 88, 89, 90, 91, 92, 93, 94, 95, 96, 97, 98, 99, 100, 101, 102, 103, 104, 105, 106, 107, 108, 109, 110, 111, 112, 113, 114, 115, 116, 117, 118, 119, 120, 121, 122, 123, 124, 125, 126, 127, 128, 129, 130, 131, 132, 133, 134, 135, 136, 137, 138, 139, 140, 141, 142, 143, 144, 145, 146, 147, 148, 149, 150, 151, 152, 153, 154, 155, 156, 157, 158, 159, 160, 161, 162, 163, 164, 165, 166, 167, 168, 169, 170, 171, 172, 173, 174, 175, 176, 177, 178, 179, 180, 181, 182, 183, 184, 185, 186, 187, 188, 189, 190, 191, 192, 193, 194, 195, 196, 197, 198, 199, 200, 201, 202, 203, 204, 205, 206, 207],
      "AcquisitionTime": ["113019.957500", "113021.447500", "113022.937500", "113024.427500", "113025.917500", "113027.407500", "113028.897500", "113030.387500", "113031.877500", "113033.367500", "113034.857500", "113036.347500", "113037.837500", "113039.327500", "113040.817500", "113042.307500", "113043.797500", "113045.287500", "113046.777500", "113048.267500", "113049.757500", "113051.247500", "113052.737500", "113054.227500", "113055.717500", "113057.207500", "113058.697500", "113100.187500", "113101.677500", "113103.167500", "113104.657500", "113106.147500", "113107.637500", "113109.127500", "113110.617500", "113112.107500", "113113.597500", "113115.087500", "113116.577500", "113118.067500", "113119.557500", "113121.047500", "113122.537500", "113124.027500", "113125.517500", "113127.007500", "113128.497500", "113129.987500", "113131.477500", "113132.967500", "113134.457500", "113135.947500", "113137.437500", "113138.927500", "113140.417500", "113141.907500", "113143.397500", "113144.887500", "113146.377500", "113147.867500", "113149.357500", "113150.847500", "113152.337500", "113153.827500", "113155.317500", "113156.807500", "113158.297500", "113159.787500", "113201.277500", "113202.767500", "113204.257500", "113205.747500", "113207.237500", "113208.727500", "113210.217500", "113211.707500", "113213.197500", "113214.687500", "113216.177500", "113217.667500", "113219.157500", "113220.647500", "113222.137500", "113223.627500", "113225.117500", "113226.607500", "113228.097500", "113229.587500", "113231.077500", "113232.567500", "113234.057500", "113235.547500", "113237.037500", "113238.527500", "113240.017500", "113241.507500", "113242.997500", "113244.487500", "113245.977500", "113247.467500", "113248.957500", "113250.447500", "113251.937500", "113253.427500", "113254.917500", "113256.407500", "113257.897500", "113259.387500", "113300.877500", "113302.367500", "113303.857500", "113305.347500", "113306.837500", "113308.327500", "113309.817500", "113311.307500", "113312.797500", "113314.287500", "113315.777500", "113317.267500", "113318.757500", "113320.247500", "113321.737500", "113323.227500", "113324.717500", "113326.207500", "113327.697500", "113329.187500", "113330.677500", "113332.167500", "113333.657500", "113335.147500", "113336.637500", "113338.127500", "113339.617500", "113341.107500", "113342.597500", "113344.087500", "113345.577500", "113347.067500", "113348.557500", "113350.047500", "113351.537500", "113353.027500", "113354.517500", "113356.007500", "113357.497500", "113358.987500", "113400.477500", "113401.967500", "113403.457500", "113404.947500", "113406.437500", "113407.927500", "113409.417500", "113410.907500", "113412.397500", "113413.887500", "113415.377500", "113416.867500", "113418.357500", "113419.847500", "113421.337500", "113422.827500", "113424.317500", "113425.807500", "113427.297500", "113428.787500", "113430.277500", "113431.767500", "113433.257500", "113434.747500", "113436.237500", "113437.727500", "113439.217500", "113440.707500", "113442.197500", "113443.687500", "113445.177500", "113446.667500", "113448.157500", "113449.647500", "113451.137500", "113452.627500", "113454.117500", "113455.607500", "113457.097500", "113458.587500", "113500.077500", "113501.567500", "113503.057500", "113504.547500", "113506.037500", "113507.527500", "113509.017500", "113510.507500", "113511.997500", "113513.487500", "113514.977500", "113516.467500", "113517.957500", "113519.447500", "113520.937500", "113522.427500", "113523.917500", "113525.407500", "113526.897500"],
      "ContentTime": ["113140.392000", "113140.395000", "113140.399000", "113140.402000", "113140.405000", "113140.408000", "113140.412000", "113140.415000", "113140.418000", "113140.422000", "113140.425000", "113140.428000", "113140.431000", "113140.435000", "113140.438000", "113140.441000", "113140.444000", "113140.456000", "113140.460000", "113140.463000", "113140.466000", "113140.469000", "113140.473000", "113140.476000", "113140.479000", "113140.482000", "113200.352000", "113200.356000", "113200.359000", "113200.362000", "113200.366000", "113200.369000", "113200.372000", "113200.375000", "113200.379000", "113200.382000", "113200.385000", "113200.389000", "113200.392000", "113200.395000", "113200.398000", "113200.402000", "113200.405000", "113200.408000", "113200.411000", "113200.415000", "113220.352000", "113220.356000", "113220.359000", "113220.362000", "113220.366000", "113220.369000", "113220.372000", "113220.375000", "113220.379000", "113220.382000", "113220.385000", "113220.388000", "113220.392000", "113220.395000", "113220.398000", "113220.402000", "113220.405000", "113220.408000", "113220.411000", "113220.415000", "113220.418000", "113240.352000", "113240.356000", "113240.359000", "113240.362000", "113240.369000", "113240.372000", "113240.376000", "113240.379000", "113240.382000", "113240.386000", "113240.389000", "113240.392000", "113240.395000", "113240.399000", "113240.402000", "113240.405000", "113240.409000", "113240.412000", "113240.415000", "113240.419000", "113320.353000", "113320.357000", "113320.360000", "113320.363000", "113320.367000", "113320.370000", "113320.388000", "113320.391000", "113320.394000", "113320.397000", "113320.401000", "113320.404000", "113320.407000", "113320.411000", "113320.414000", "113320.417000", "113320.421000", "113320.424000", "113320.427000", "113320.430000", "113320.434000", "113320.437000", "113320.440000", "113320.444000", "113320.447000", "113320.450000", "113320.453000", "113320.457000", "113320.460000", "113320.463000", "113320.467000", "113320.470000", "113320.473000", "113400.352000", "113400.356000", "113400.359000", "113400.362000", "113400.366000", "113400.369000", "113400.372000", "113400.376000", "113400.379000", "113400.382000", "113400.386000", "113400.389000", "113400.392000", "113400.396000", "113400.399000", "113400.402000", "113400.405000", "113400.409000", "113400.412000", "113400.415000", "113400.419000", "113400.422000", "113400.425000", "113400.429000", "113400.432000", "113400.435000", "113400.438000", "113440.352000", "113440.356000", "113440.359000", "113440.362000", "113440.366000", "113440.369000", "113440.372000", "113440.376000", "113440.379000", "113440.382000", "113440.385000", "113440.389000", "113440.392000", "113440.395000", "113440.399000", "113440.402000", "113440.406000", "113440.409000", "113440.412000", "113440.416000", "113440.419000", "113440.422000", "113440.426000", "113440.429000", "113440.433000", "113440.436000", "113440.439000", "113520.352000", "113520.356000", "113520.359000", "113520.362000", "113520.366000", "113520.369000", "113520.372000", "113520.376000", "113520.379000", "113520.382000", "113520.386000", "113520.389000", "113520.392000", "113520.396000", "113520.399000", "113520.402000", "113520.406000", "113520.411000", "113520.414000", "113520.417000", "113520.421000", "113520.438000", "113520.442000", "113520.445000", "113520.448000", "113520.452000", "113529.484000", "113529.488000", "113529.491000", "113529.494000", "113529.497000", "113529.501000", "113529.504000"],
      "InstanceCreationTime": ["113140.392000", "113140.395000", "113140.399000", "113140.402000", "113140.405000", "113140.408000", "113140.412000", "113140.415000", "113140.418000", "113140.422000", "113140.425000", "113140.428000", "113140.431000", "113140.435000", "113140.438000", "113140.441000", "113140.444000", "113140.456000", "113140.460000", "113140.463000", "113140.466000", "113140.469000", "113140.473000", "113140.476000", "113140.479000", "113140.482000", "113200.352000", "113200.356000", "113200.359000", "113200.362000", "113200.366000", "113200.369000", "113200.372000", "113200.375000", "113200.379000", "113200.382000", "113200.385000", "113200.389000", "113200.392000", "113200.395000", "113200.398000", "113200.402000", "113200.405000", "113200.408000", "113200.411000", "113200.415000", "113220.352000", "113220.356000", "113220.359000", "113220.362000", "113220.366000", "113220.369000", "113220.372000", "113220.375000", "113220.379000", "113220.382000", "113220.385000", "113220.388000", "113220.392000", "113220.395000", "113220.398000", "113220.402000", "113220.405000", "113220.408000", "113220.411000", "113220.415000", "113220.418000", "113240.352000", "113240.356000", "113240.359000", "113240.362000", "113240.369000", "113240.372000", "113240.376000", "113240.379000", "113240.382000", "113240.386000", "113240.389000", "113240.392000", "113240.395000", "113240.399000", "113240.402000", "113240.405000", "113240.409000", "113240.412000", "113240.415000", "113240.419000", "113320.353000", "113320.357000", "113320.360000", "113320.363000", "113320.367000", "113320.370000", "113320.388000", "113320.391000", "113320.394000", "113320.397000", "113320.401000", "113320.404000", "113320.407000", "113320.411000", "113320.414000", "113320.417000", "113320.421000", "113320.424000", "113320.427000", "113320.430000", "113320.434000", "113320.437000", "113320.440000", "113320.444000", "113320.447000", "113320.450000", "113320.453000", "113320.457000", "113320.460000", "113320.463000", "113320.467000", "113320.470000", "113320.473000", "113400.352000", "113400.356000", "113400.359000", "113400.362000", "113400.366000", "113400.369000", "113400.372000", "113400.376000", "113400.379000", "113400.382000", "113400.386000", "113400.389000", "113400.392000", "113400.396000", "113400.399000", "113400.402000", "113400.405000", "113400.409000", "113400.412000", "113400.415000", "113400.419000", "113400.422000", "113400.425000", "113400.429000", "113400.432000", "113400.435000", "113400.438000", "113440.352000", "113440.356000", "113440.359000", "113440.362000", "113440.366000", "113440.369000", "113440.372000", "113440.376000", "113440.379000", "113440.382000", "113440.385000", "113440.389000", "113440.392000", "113440.395000", "113440.399000", "113440.402000", "113440.406000", "113440.409000", "113440.412000", "113440.416000", "113440.419000", "113440.422000", "113440.426000", "113440.429000", "113440.433000", "113440.436000", "113440.439000", "113520.352000", "113520.356000", "113520.359000", "113520.362000", "113520.366000", "113520.369000", "113520.372000", "113520.376000", "113520.379000", "113520.382000", "113520.386000", "113520.389000", "113520.392000", "113520.396000", "113520.399000", "113520.402000", "113520.406000", "113520.411000", "113520.414000", "113520.417000", "113520.421000", "113520.438000", "113520.442000", "113520.445000", "113520.448000", "113520.452000", "113529.484000", "113529.488000", "113529.491000", "113529.494000", "113529.497000", "113529.501000", "113529.504000"],
      "InstanceNumber": [1, 2, 3, 4, 5, 6, 7, 8, 9, 10, 11, 12, 13, 14, 15, 16, 17, 18, 19, 20, 21, 22, 23, 24, 25, 26, 27, 28, 29, 30, 31, 32, 33, 34, 35, 36, 37, 38, 39, 40, 41, 42, 43, 44, 45, 46, 47, 48, 49, 50, 51, 52, 53, 54, 55, 56, 57, 58, 59, 60, 61, 62, 63, 64, 65, 66, 67, 68, 69, 70, 71, 72, 73, 74, 75, 76, 77, 78, 79, 80, 81, 82, 83, 84, 85, 86, 87, 88, 89, 90, 91, 92, 93, 94, 95, 96, 97, 98, 99, 100, 101, 102, 103, 104, 105, 106, 107, 108, 109, 110, 111, 112, 113, 114, 115, 116, 117, 118, 119, 120, 121, 122, 123, 124, 125, 126, 127, 128, 129, 130, 131, 132, 133, 134, 135, 136, 137, 138, 139, 140, 141, 142, 143, 144, 145, 146, 147, 148, 149, 150, 151, 152, 153, 154, 155, 156, 157, 158, 159, 160, 161, 162, 163, 164, 165, 166, 167, 168, 169, 170, 171, 172, 173, 174, 175, 176, 177, 178, 179, 180, 181, 182, 183, 184, 185, 186, 187, 188, 189, 190, 191, 192, 193, 194, 195, 196, 197, 198, 199, 200, 201, 202, 203, 204, 205, 206, 207],
      "LargestImagePixelValue": [47761, 46829, 46608, 46511, 46482, 46112, 46953, 46558, 46427, 47206, 46148, 46630, 46845, 46508, 46496, 45553, 46575, 45851, 46325, 46715, 45475, 45911, 46274, 46805, 46267, 46516, 46539, 45905, 44663, 45360, 45668, 46128, 45214, 46168, 46900, 44507, 46754, 44956, 46533, 46400, 47333, 46769, 46317, 46069, 47045, 46483, 47173, 46884, 46424, 46522, 45430, 47040, 46634, 46639, 46324, 47207, 46685, 47784, 46951, 45843, 47613, 47094, 46110, 47514, 46336, 46398, 46466, 47384, 46532, 44330, 44508, 46557, 47250, 45612, 47205, 45388, 46554, 45873, 46570, 46177, 46171, 46420, 46143, 45747, 47796, 45754, 45194, 46968, 45936, 47306, 45767, 45785, 45130, 45668, 45512, 46492, 46548, 46228, 47434, 46429, 46808, 46289, 45983, 46646, 45080, 45567, 44701, 47021, 46740, 46680, 46414, 46851, 46354, 47460, 46200, 44320, 45903, 44547, 46121, 44989, 46326, 46045, 47122, 46838, 47599, 46283, 46043, 46329, 45381, 46050, 45781, 46678, 45679, 47697, 46178, 45459, 45608, 45058, 47001, 45170, 46566, 47027, 46050, 45736, 47143, 45480, 47263, 45991, 47129, 45801, 45923, 46136, 45198, 46511, 45212, 46529, 44564, 47240, 44796, 45647, 44509, 45985, 44419, 44131, 46233, 43884, 46203, 44514, 45812, 45458, 46574, 47443, 45087, 46506, 44805, 45718, 44867, 44114, 45078, 46345, 45731, 45506, 47224, 45433, 46882, 44936, 44662, 46774, 43450, 43211, 43159, 44794, 45901, 45904, 45511, 47129, 46402, 45312, 45843, 45798, 45130, 44463, 46746, 47010, 46325, 43024, 43795],
      "WindowCenter": [11158.0, 11088.0, 11060.0, 11077.0, 11098.0, 11087.0, 11115.0, 11121.0, 11122.0, 11118.0, 11107.0, 11110.0, 11150.0, 11160.0, 11129.0, 11184.0, 11145.0, 11115.0, 11145.0, 11117.0, 11108.0, 11133.0, 11126.0, 11100.0, 11078.0, 11085.0, 11110.0, 11120.0, 11121.0, 11172.0, 11153.0, 11144.0, 11127.0, 11108.0, 11097.0, 11090.0, 11117.0, 11123.0, 11149.0, 11120.0, 11107.0, 11118.0, 11092.0, 11057.0, 11044.0, 11049.0, 11133.0, 11102.0, 11076.0, 11083.0, 11097.0, 11081.0, 11083.0, 11129.0, 11127.0, 11107.0, 11094.0, 11119.0, 11130.0, 11096.0, 11087.0, 11072.0, 11087.0, 11116.0, 11123.0, 11105.0, 11092.0, 11119.0, 11142.0, 11132.0, 11078.0, 11067.0, 11110.0, 11135.0, 11151.0, 11109.0, 11101.0, 11089.0, 11096.0, 11163.0, 11101.0, 11075.0, 11100.0, 11102.0, 11112.0, 11104.0, 11128.0, 11132.0, 11129.0, 11168.0, 11143.0, 11140.0, 11129.0, 11128.0, 11117.0, 11125.0, 11129.0, 11118.0, 11121.0, 11118.0, 11133.0, 11102.0, 11079.0, 11118.0, 11153.0, 11153.0, 11162.0, 11166.0, 11118.0, 11100.0, 11101.0, 11099.0, 11090.0, 11126.0, 11089.0, 11096.0, 11106.0, 11095.0, 11105.0, 11130.0, 11138.0, 11094.0, 11068.0, 11056.0, 11079.0, 11083.0, 11080.0, 11086.0, 11076.0, 11080.0, 11075.0, 11084.0, 11079.0, 11105.0, 11145.0, 11137.0, 11104.0, 11071.0, 11071.0, 11082.0, 11145.0, 11154.0, 11131.0, 11171.0, 11129.0, 11064.0, 11094.0, 11079.0, 11078.0, 11070.0, 11068.0, 11075.0, 11067.0, 11085.0, 11077.0, 11086.0, 11074.0, 11126.0, 11077.0, 11088.0, 11084.0, 11101.0, 11069.0, 11070.0, 11080.0, 11063.0, 11078.0, 11067.0, 11083.0, 11052.0, 11074.0, 11099.0, 11099.0, 11119.0, 11106.0, 11107.0, 11090.0, 11074.0, 11063.0, 11074.0, 11058.0, 11055.0, 11084.0, 11090.0, 11116.0, 11104.0, 11096.0, 11120.0, 11129.0, 11106.0, 11052.0, 11032.0, 11023.0, 11054.0, 11074.0, 11099.0, 11133.0, 11175.0, 11078.0, 11074.0, 11072.0, 11060.0, 11035.0, 11043.0, 11118.0, 11113.0, 11098.0],
      "WindowWidth": [24031.0, 23836.0, 23754.0, 23775.0, 23820.0, 23796.0, 23855.0, 23870.0, 23869.0, 23859.0, 23836.0, 23840.0, 23935.0, 23962.0, 23886.0, 24023.0, 23922.0, 23853.0, 23921.0, 23857.0, 23841.0, 23899.0, 23881.0, 23819.0, 23767.0, 23783.0, 23841.0, 23867.0, 23880.0, 23996.0, 23950.0, 23921.0, 23887.0, 23838.0, 23809.0, 23802.0, 23858.0, 23880.0, 23938.0, 23868.0, 23829.0, 23861.0, 23801.0, 23719.0, 23684.0, 23698.0, 23894.0, 23821.0, 23758.0, 23777.0, 23815.0, 23771.0, 23775.0, 23881.0, 23881.0, 23831.0, 23801.0, 23850.0, 23883.0, 23807.0, 23780.0, 23744.0, 23784.0, 23847.0, 23867.0, 23826.0, 23795.0, 23852.0, 23913.0, 23899.0, 23778.0, 23742.0, 23832.0, 23900.0, 23928.0, 23838.0, 23815.0, 23789.0, 23802.0, 23971.0, 23823.0, 23751.0, 23813.0, 23817.0, 23835.0, 23826.0, 23888.0, 23886.0, 23885.0, 23973.0, 23918.0, 23910.0, 23885.0, 23878.0, 23858.0, 23871.0, 23886.0, 23861.0, 23861.0, 23855.0, 23888.0, 23825.0, 23766.0, 23853.0, 23941.0, 23945.0, 23966.0, 23964.0, 23854.0, 23808.0, 23821.0, 23806.0, 23793.0, 23872.0, 23787.0, 23816.0, 23826.0, 23812.0, 23826.0, 23884.0, 23902.0, 23800.0, 23736.0, 23707.0, 23756.0, 23771.0, 23766.0, 23780.0, 23761.0, 23767.0, 23758.0, 23774.0, 23765.0, 23816.0, 23919.0, 23903.0, 23824.0, 23750.0, 23744.0, 23774.0, 23917.0, 23937.0, 23896.0, 23983.0, 23878.0, 23728.0, 23789.0, 23762.0, 23753.0, 23744.0, 23739.0, 23754.0, 23743.0, 23784.0, 23768.0, 23783.0, 23761.0, 23873.0, 23766.0, 23791.0, 23790.0, 23822.0, 23751.0, 23756.0, 23769.0, 23737.0, 23762.0, 23742.0, 23776.0, 23709.0, 23750.0, 23810.0, 23817.0, 23860.0, 23838.0, 23840.0, 23801.0, 23765.0, 23736.0, 23756.0, 23718.0, 23710.0, 23771.0, 23797.0, 23849.0, 23834.0, 23814.0, 23862.0, 23898.0, 23846.0, 23719.0, 23666.0, 23638.0, 23708.0, 23759.0, 23811.0, 23890.0, 24001.0, 23767.0, 23754.0, 23754.0, 23731.0, 23661.0, 23674.0, 23855.0, 23861.0, 23822.0]
    },
    "slices": {}
  }
}