{
  "AcquisitionMatrixPE": 104,
  "AcquisitionNumber": 1,
  "AcquisitionTime": "11:30:19.957500",
  "BandwidthPerPixelPhaseEncode": 17.17,
  "BaseResolution": 104,
  "BodyPartExamined": "BRAIN",
  "CoilCombinationMethod": "Sum of Squares",
  "ConsistencyInfo": "N4_VE11C_LATEST_20160120",
  "ConversionSoftware": "dcm2niix",
  "ConversionSoftwareVersion": "v1.0.20211006",
  "DerivedVendorReportedEchoSpacing": 0.000560011,
  "DeviceSerialNumber": "167006",
  "DwellTime": 2.1e-06,
  "EchoTime": 0.037,
  "EchoTime1": 0.037,
  "EchoTime2": 0.001,
  "EchoTrainLength": 104,
  "EffectiveEchoSpacing": 0.000560011,
  "FlipAngle": 52,
  "HeudiconvVersion": "0.10.0",
  "ImageComments": "Unaliased MB4/PE3/LB",
  "ImageOrientationPatientDICOM": [0.99965, 0.0145514, 0.0221039, -0.000697929, 0.849461, -0.527652],
  "ImageOrientationText": "Tra>Cor(-31.8)>Sag(1.5)",
  "ImageType": [
    "ORIGINAL",
    "PRIMARY",
    "P",
    "MB",
    "ND",
    "MOSAIC",
    "PHASE"
],
  "ImagingFrequency": 123.259,
  "InPlanePhaseEncodingDirectionDICOM": "COL",
  "InstitutionAddress": "Chemin Queen-Mary 4565,Montreal,District,CA,H3W 1W5",
  "InstitutionName": "IUGM",
  "InstitutionalDepartmentName": "Department",
  "MRAcquisitionType": "2D",
  "MagneticFieldStrength": 3,
  "Manufacturer": "Siemens",
  "ManufacturersModelName": "Prisma_fit",
  "MatrixCoilMode": "SENSE",
  "Modality": "MR",
  "MultibandAccelerationFactor": 4,
  "PartialFourier": 1,
  "PatientPosition": "HFS",
  "PercentPhaseFOV": 100,
  "PercentSampling": 100,
  "PhaseEncodingDirection": "j",
  "PhaseEncodingSteps": 104,
  "PhaseResolution": 1,
  "PixelBandwidth": 2290,
  "ProcedureStepDescription": "games^gamepad",
  "ProtocolName": "func_task-gamepad_run-2",
  "PulseSequenceDetails": "%CustomerSeq%\\cmrr_mbep2d_bold",
  "ReceiveCoilActiveElements": "HC1-7;NC1,2",
  "ReceiveCoilName": "HeadNeck_64",
  "ReconMatrixPE": 104,
  "RepetitionTime": 1.49,
  "SAR": 0.072621,
  "ScanOptions": "FS",
  "ScanningSequence": "EP",
  "SequenceName": "epfid2d1_104",
  "SequenceVariant": "SK\\SS",
  "SeriesDescription": "func_task-gamepad_run-2",
  "SeriesNumber": 14,
  "ShimSetting": [617, -7188, -8875, 260, 24, -156, -20, 7],
  "SliceThickness": 2,
  "SliceTiming": [0, 0.785, 0.0975, 0.8825, 0.195, 0.98, 0.295, 1.0775, 0.3925, 1.175, 0.49, 1.275, 0.5875, 1.3725, 0.685, 0, 0.785, 0.0975, 0.8825, 0.195, 0.98, 0.295, 1.0775, 0.3925, 1.175, 0.49, 1.275, 0.5875, 1.3725, 0.685, 0, 0.785, 0.0975, 0.8825, 0.195, 0.98, 0.295, 1.0775, 0.3925, 1.175, 0.49, 1.275, 0.5875, 1.3725, 0.685, 0, 0.785, 0.0975, 0.8825, 0.195, 0.98, 0.295, 1.0775, 0.3925, 1.175, 0.49, 1.275, 0.5875, 1.3725, 0.685],
  "SoftwareVersions": "syngo MR E11",
  "SpacingBetweenSlices": 2,
  "StationName": "MRC35049",
  "TaskName": "gamepad",
  "TotalReadoutTime": 0.0576811,
  "TxRefAmp": 300.429,
  "WipMemBlock": "5ad6e50e-8fef-4520-9e01-4531bff0f28d||Sequence: R016 ve11c/master r/e634e98; Dec 19 2017 11:00:25 by eja",
  "dcmmeta_affine": [
    [-1.9992995262145996, -0.0013958571944385767, 0.052908942103385925, 105.38915252685547],
    [-0.029102817177772522, 1.6989210844039917, -1.0549029111862183, -48.022579193115234],
    [0.04420781135559082, 1.0553033351898193, 1.6983463764190674, -100.9200668334961],
    [0.0, 0.0, 0.0, 1.0]
],
  "dcmmeta_reorient_transform": [
    [0.0, -1.0, 0.0, 103.0],
    [1.0, 0.0, 0.0, 0.0],
    [0.0, 0.0, 1.0, 0.0],
    [0.0, 0.0, 0.0, 1.0]
],
  "dcmmeta_shape": [104, 104, 60, 207],
  "dcmmeta_slice_dim": 2,
  "dcmmeta_version": 0.6,
  "global": {
    "const": {
      "AcquisitionMatrix": [104, 0, 0, 104],
      "AngioFlag": "N",
      "BitsAllocated": 16,
      "BitsStored": 16,
      "BodyPartExamined": "BRAIN",
      "Columns": 832,
      "EchoNumbers": 1,
      "EchoTime": 37.0,
      "EchoTrainLength": 104,
      "FlipAngle": 52.0,
      "HighBit": 15,
      "ImageOrientationPatient": [0.99964977559316, 0.01455140851401, 0.02210390614374, -0.0006979286171, 0.84946054478967, -0.5276516803169],
      "ImagePositionPatient": [-832.48232420584, -755.96699589939, 375.81495923271],
      "ImageType": [
        "ORIGINAL",
        "PRIMARY",
        "P",
        "MB",
        "ND",
        "MOSAIC"
],
      "ImagedNucleus": "1H",
      "ImagingFrequency": 123.259103,
      "InPlanePhaseEncodingDirection": "COL",
      "LargestImagePixelValue": 4095,
      "MRAcquisitionType": "2D",
      "MagneticFieldStrength": 3.0,
      "Manufacturer": "SIEMENS",
      "ManufacturerModelName": "Prisma_fit",
      "Modality": "MR",
      "NumberOfAverages": 1.0,
      "NumberOfPhaseEncodingSteps": 104,
      "PercentPhaseFieldOfView": 100.0,
      "PercentSampling": 100.0,
      "PerformedProcedureStepStartTime": "112017.867000",
      "PhotometricInterpretation": "MONOCHROME2",
      "PixelBandwidth": 2290.0,
      "PixelRepresentation": 0,
      "PixelSpacing": [2.0, 2.0],
      "ProtocolName": "func_task-gamepad_run-2",
      "RepetitionTime": 1490.0,
      "RescaleIntercept": -4096.0,
      "RescaleSlope": 2.0,
      "RescaleType": "US",
      "Rows": 832,
      "SAR": 0.07262098195602,
      "SamplesPerPixel": 1,
      "ScanOptions": "FS",
      "ScanningSequence": "EP",
      "SequenceName": "epfid2d1_104",
      "SequenceVariant": [
        "SK",
        "SS"
],
      "SeriesDescription": "func_task-gamepad_run-2",
      "SeriesNumber": 14,
      "SeriesTime": "113140.512000",
      "SliceLocation": -57.581022478074,
      "SliceThickness": 2.0,
      "SmallestImagePixelValue": 0,
      "SoftwareVersions": "syngo MR E11",
      "SpacingBetweenSlices": 2.0000000057405,
      "SpecificCharacterSet": "ISO_IR 100",
      "StudyID": "1",
      "StudyTime": "112017.760000",
      "TransmitCoilName": "Body",
      "VariableFlipAngleFlag": "N",
      "WindowCenterWidthExplanation": "Algo1",
      "dBdt": 0.0},
    "slices": {}
  },
  "time": {
    "samples": {
      "AcquisitionNumber": [1, 2, 3, 4, 5, 6, 7, 8, 9, 10, 11, 12, 13, 14, 15, 16, 17, 18, 19, 20, 21, 22, 23, 24, 25, 26, 27, 28, 29, 30, 31, 32, 33, 34, 35, 36, 37, 38, 39, 40, 41, 42, 43, 44, 45, 46, 47, 48, 49, 50, 51, 52, 53, 54, 55, 56, 57, 58, 59, 60, 61, 62, 63, 64, 65, 66, 67, 68, 69, 70, 71, 72, 73, 74, 75, 76, 77, 78, 79, 80, 81, 82, 83, 84, 85, 86, 87, 88, 89, 90, 91, 92, 93, 94, 95, 96, 97, 98, 99, 100, 101, 102, 103, 104, 105, 106, 107, 108, 109, 110, 111, 112, 113, 114, 115, 116, 117, 118, 119, 120, 121, 122, 123, 124, 125, 126, 127, 128, 129, 130, 131, 132, 133, 134, 135, 136, 137, 138, 139, 140, 141, 142, 143, 144, 145, 146, 147, 148, 149, 150, 151, 152, 153, 154, 155, 156, 157, 158, 159, 160, 161, 162, 163, 164, 165, 166, 167, 168, 169, 170, 171, 172, 173, 174, 175, 176, 177, 178, 179, 180, 181, 182, 183, 184, 185, 186, 187, 188, 189, 190, 191, 192, 193, 194, 195, 196, 197, 198, 199, 200, 201, 202, 203, 204, 205, 206, 207],
      "AcquisitionTime": ["113019.957500", "113021.447500", "113022.937500", "113024.427500", "113025.917500", "113027.407500", "113028.897500", "113030.387500", "113031.877500", "113033.367500", "113034.857500", "113036.347500", "113037.837500", "113039.327500", "113040.817500", "113042.307500", "113043.797500", "113045.287500", "113046.777500", "113048.267500", "113049.757500", "113051.247500", "113052.737500", "113054.227500", "113055.717500", "113057.207500", "113058.697500", "113100.187500", "113101.677500", "113103.167500", "113104.657500", "113106.147500", "113107.637500", "113109.127500", "113110.617500", "113112.107500", "113113.597500", "113115.087500", "113116.577500", "113118.067500", "113119.557500", "113121.047500", "113122.537500", "113124.027500", "113125.517500", "113127.007500", "113128.497500", "113129.987500", "113131.477500", "113132.967500", "113134.457500", "113135.947500", "113137.437500", "113138.927500", "113140.417500", "113141.907500", "113143.397500", "113144.887500", "113146.377500", "113147.867500", "113149.357500", "113150.847500", "113152.337500", "113153.827500", "113155.317500", "113156.807500", "113158.297500", "113159.787500", "113201.277500", "113202.767500", "113204.257500", "113205.747500", "113207.237500", "113208.727500", "113210.217500", "113211.707500", "113213.197500", "113214.687500", "113216.177500", "113217.667500", "113219.157500", "113220.647500", "113222.137500", "113223.627500", "113225.117500", "113226.607500", "113228.097500", "113229.587500", "113231.077500", "113232.567500", "113234.057500", "113235.547500", "113237.037500", "113238.527500", "113240.017500", "113241.507500", "113242.997500", "113244.487500", "113245.977500", "113247.467500", "113248.957500", "113250.447500", "113251.937500", "113253.427500", "113254.917500", "113256.407500", "113257.897500", "113259.387500", "113300.877500", "113302.367500", "113303.857500", "113305.347500", "113306.837500", "113308.327500", "113309.817500", "113311.307500", "113312.797500", "113314.287500", "113315.777500", "113317.267500", "113318.757500", "113320.247500", "113321.737500", "113323.227500", "113324.717500", "113326.207500", "113327.697500", "113329.187500", "113330.677500", "113332.167500", "113333.657500", "113335.147500", "113336.637500", "113338.127500", "113339.617500", "113341.107500", "113342.597500", "113344.087500", "113345.577500", "113347.067500", "113348.557500", "113350.047500", "113351.537500", "113353.027500", "113354.517500", "113356.007500", "113357.497500", "113358.987500", "113400.477500", "113401.967500", "113403.457500", "113404.947500", "113406.437500", "113407.927500", "113409.417500", "113410.907500", "113412.397500", "113413.887500", "113415.377500", "113416.867500", "113418.357500", "113419.847500", "113421.337500", "113422.827500", "113424.317500", "113425.807500", "113427.297500", "113428.787500", "113430.277500", "113431.767500", "113433.257500", "113434.747500", "113436.237500", "113437.727500", "113439.217500", "113440.707500", "113442.197500", "113443.687500", "113445.177500", "113446.667500", "113448.157500", "113449.647500", "113451.137500", "113452.627500", "113454.117500", "113455.607500", "113457.097500", "113458.587500", "113500.077500", "113501.567500", "113503.057500", "113504.547500", "113506.037500", "113507.527500", "113509.017500", "113510.507500", "113511.997500", "113513.487500", "113514.977500", "113516.467500", "113517.957500", "113519.447500", "113520.937500", "113522.427500", "113523.917500", "113525.407500", "113526.897500"],
      "ContentTime": ["113140.514000", "113140.517000", "113140.519000", "113140.522000", "113140.524000", "113140.527000", "113140.529000", "113140.532000", "113140.534000", "113140.536000", "113140.539000", "113140.541000", "113140.544000", "113140.546000", "113140.549000", "113140.551000", "113140.554000", "113140.556000", "113140.559000", "113140.561000", "113140.563000", "113140.566000", "113140.568000", "113140.571000", "113140.573000", "113140.576000", "113200.460000", "113200.463000", "113200.465000", "113200.468000", "113200.470000", "113200.473000", "113200.475000", "113200.478000", "113200.480000", "113200.483000", "113200.485000", "113200.488000", "113200.490000", "113200.493000", "113200.495000", "113200.497000", "113200.500000", "113200.502000", "113200.505000", "113200.507000", "113220.476000", "113220.479000", "113220.481000", "113220.484000", "113220.486000", "113220.489000", "113220.491000", "113220.494000", "113220.496000", "113220.499000", "113220.501000", "113220.504000", "113220.506000", "113220.509000", "113220.511000", "113220.514000", "113220.516000", "113220.519000", "113220.521000", "113220.523000", "113220.526000", "113240.470000", "113240.472000", "113240.475000", "113240.478000", "113240.480000", "113240.483000", "113240.485000", "113240.494000", "113240.497000", "113240.499000", "113240.501000", "113240.510000", "113240.513000", "113240.515000", "113240.518000", "113240.520000", "113240.523000", "113240.525000", "113240.528000", "113240.530000", "113320.530000", "113320.533000", "113320.536000", "113320.538000", "113320.541000", "113320.543000", "113320.546000", "113320.548000", "113320.550000", "113320.553000", "113320.555000", "113320.558000", "113320.561000", "113320.563000", "113320.566000", "113320.568000", "113320.570000", "113320.573000", "113320.575000", "113320.578000", "113320.580000", "113320.583000", "113320.585000", "113320.588000", "113320.590000", "113320.593000", "113320.595000", "113320.598000", "113320.600000", "113320.603000", "113320.605000", "113320.608000", "113320.610000", "113400.486000", "113400.489000", "113400.491000", "113400.494000", "113400.496000", "113400.499000", "113400.509000", "113400.512000", "113400.514000", "113400.517000", "113400.520000", "113400.522000", "113400.525000", "113400.527000", "113400.530000", "113400.532000", "113400.535000", "113400.537000", "113400.540000", "113400.543000", "113400.545000", "113400.547000", "113400.550000", "113400.552000", "113400.555000", "113400.557000", "113400.560000", "113440.488000", "113440.490000", "113440.493000", "113440.495000", "113440.498000", "113440.501000", "113440.503000", "113440.506000", "113440.508000", "113440.511000", "113440.513000", "113440.516000", "113440.518000", "113440.521000", "113440.523000", "113440.526000", "113440.529000", "113440.531000", "113440.534000", "113440.536000", "113440.539000", "113440.541000", "113440.544000", "113440.546000", "113440.549000", "113440.551000", "113440.554000", "113520.501000", "113520.504000", "113520.506000", "113520.509000", "113520.511000", "113520.514000", "113520.516000", "113520.519000", "113520.521000", "113520.524000", "113520.526000", "113520.529000", "113520.531000", "113520.534000", "113520.536000", "113520.539000", "113520.541000", "113520.544000", "113520.546000", "113520.549000", "113520.551000", "113520.554000", "113520.556000", "113520.559000", "113520.561000", "113520.564000", "113529.542000", "113529.544000", "113529.547000", "113529.550000", "113529.552000", "113529.555000", "113529.557000"],
      "InstanceCreationTime": ["113140.514000", "113140.517000", "113140.519000", "113140.522000", "113140.524000", "113140.527000", "113140.529000", "113140.532000", "113140.534000", "113140.536000", "113140.539000", "113140.541000", "113140.544000", "113140.546000", "113140.549000", "113140.551000", "113140.554000", "113140.556000", "113140.559000", "113140.561000", "113140.563000", "113140.566000", "113140.568000", "113140.571000", "113140.573000", "113140.576000", "113200.460000", "113200.463000", "113200.465000", "113200.468000", "113200.470000", "113200.473000", "113200.475000", "113200.478000", "113200.480000", "113200.483000", "113200.485000", "113200.488000", "113200.490000", "113200.493000", "113200.495000", "113200.497000", "113200.500000", "113200.502000", "113200.505000", "113200.507000", "113220.476000", "113220.479000", "113220.481000", "113220.484000", "113220.486000", "113220.489000", "113220.491000", "113220.494000", "113220.496000", "113220.499000", "113220.501000", "113220.504000", "113220.506000", "113220.509000", "113220.511000", "113220.514000", "113220.516000", "113220.519000", "113220.521000", "113220.523000", "113220.526000", "113240.470000", "113240.472000", "113240.475000", "113240.478000", "113240.480000", "113240.483000", "113240.485000", "113240.494000", "113240.497000", "113240.499000", "113240.501000", "113240.510000", "113240.513000", "113240.515000", "113240.518000", "113240.520000", "113240.523000", "113240.525000", "113240.528000", "113240.530000", "113320.530000", "113320.533000", "113320.536000", "113320.538000", "113320.541000", "113320.543000", "113320.546000", "113320.548000", "113320.550000", "113320.553000", "113320.555000", "113320.558000", "113320.561000", "113320.563000", "113320.566000", "113320.568000", "113320.570000", "113320.573000", "113320.575000", "113320.578000", "113320.580000", "113320.583000", "113320.585000", "113320.588000", "113320.590000", "113320.593000", "113320.595000", "113320.598000", "113320.600000", "113320.603000", "113320.605000", "113320.608000", "113320.610000", "113400.486000", "113400.489000", "113400.491000", "113400.494000", "113400.496000", "113400.499000", "113400.509000", "113400.512000", "113400.514000", "113400.517000", "113400.520000", "113400.522000", "113400.525000", "113400.527000", "113400.530000", "113400.532000", "113400.535000", "113400.537000", "113400.540000", "113400.543000", "113400.545000", "113400.547000", "113400.550000", "113400.552000", "113400.555000", "113400.557000", "113400.560000", "113440.488000", "113440.490000", "113440.493000", "113440.495000", "113440.498000", "113440.501000", "113440.503000", "113440.506000", "113440.508000", "113440.511000", "113440.513000", "113440.516000", "113440.518000", "113440.521000", "113440.523000", "113440.526000", "113440.529000", "113440.531000", "113440.534000", "113440.536000", "113440.539000", "113440.541000", "113440.544000", "113440.546000", "113440.549000", "113440.551000", "113440.554000", "113520.501000", "113520.504000", "113520.506000", "113520.509000", "113520.511000", "113520.514000", "113520.516000", "113520.519000", "113520.521000", "113520.524000", "113520.526000", "113520.529000", "113520.531000", "113520.534000", "113520.536000", "113520.539000", "113520.541000", "113520.544000", "113520.546000", "113520.549000", "113520.551000", "113520.554000", "113520.556000", "113520.559000", "113520.561000", "113520.564000", "113529.542000", "113529.544000", "113529.547000", "113529.550000", "113529.552000", "113529.555000", "113529.557000"],
      "InstanceNumber": [1, 2, 3, 4, 5, 6, 7, 8, 9, 10, 11, 12, 13, 14, 15, 16, 17, 18, 19, 20, 21, 22, 23, 24, 25, 26, 27, 28, 29, 30, 31, 32, 33, 34, 35, 36, 37, 38, 39, 40, 41, 42, 43, 44, 45, 46, 47, 48, 49, 50, 51, 52, 53, 54, 55, 56, 57, 58, 59, 60, 61, 62, 63, 64, 65, 66, 67, 68, 69, 70, 71, 72, 73, 74, 75, 76, 77, 78, 79, 80, 81, 82, 83, 84, 85, 86, 87, 88, 89, 90, 91, 92, 93, 94, 95, 96, 97, 98, 99, 100, 101, 102, 103, 104, 105, 106, 107, 108, 109, 110, 111, 112, 113, 114, 115, 116, 117, 118, 119, 120, 121, 122, 123, 124, 125, 126, 127, 128, 129, 130, 131, 132, 133, 134, 135, 136, 137, 138, 139, 140, 141, 142, 143, 144, 145, 146, 147, 148, 149, 150, 151, 152, 153, 154, 155, 156, 157, 158, 159, 160, 161, 162, 163, 164, 165, 166, 167, 168, 169, 170, 171, 172, 173, 174, 175, 176, 177, 178, 179, 180, 181, 182, 183, 184, 185, 186, 187, 188, 189, 190, 191, 192, 193, 194, 195, 196, 197, 198, 199, 200, 201, 202, 203, 204, 205, 206, 207],
      "WindowCenter": [4882.0, 4880.0, 4856.0, 4858.0, 4882.0, 4878.0, 4882.0, 4884.0, 4882.0, 4884.0, 4886.0, 4880.0, 4884.0, 4878.0, 4888.0, 4880.0, 4884.0, 4882.0, 4880.0, 4888.0, 4886.0, 4884.0, 4882.0, 4880.0, 4858.0, 4884.0, 4880.0, 4882.0, 4860.0, 4856.0, 4886.0, 4880.0, 4886.0, 4880.0, 4912.0, 4884.0, 4884.0, 4852.0, 4856.0, 4860.0, 4860.0, 4882.0, 4882.0, 4858.0, 4862.0, 4860.0, 4882.0, 4886.0, 4884.0, 4908.0, 4860.0, 4860.0, 4882.0, 4854.0, 4854.0, 4856.0, 4860.0, 4884.0, 4888.0, 4884.0, 4888.0, 4888.0, 4860.0, 4884.0, 4882.0, 4860.0, 4854.0, 4908.0, 4908.0, 4884.0, 4854.0, 4856.0, 4858.0, 4858.0, 4886.0, 4886.0, 4908.0, 4910.0, 4886.0, 4886.0, 4858.0, 4882.0, 4858.0, 4854.0, 4882.0, 4888.0, 4858.0, 4886.0, 4884.0, 4884.0, 4888.0, 4882.0, 4884.0, 4858.0, 4856.0, 4856.0, 4858.0, 4878.0, 4880.0, 4886.0, 4882.0, 4912.0, 4884.0, 4886.0, 4856.0, 4884.0, 4858.0, 4858.0, 4856.0, 4854.0, 4860.0, 4884.0, 4886.0, 4884.0, 4906.0, 4880.0, 4882.0, 4856.0, 4860.0, 4854.0, 4856.0, 4882.0, 4884.0, 4884.0, 4886.0, 4884.0, 4882.0, 4882.0, 4854.0, 4860.0, 4856.0, 4882.0, 4856.0, 4908.0, 4888.0, 4888.0, 4886.0, 4856.0, 4884.0, 4858.0, 4856.0, 4888.0, 4886.0, 4858.0, 4858.0, 4856.0, 4882.0, 4856.0, 4878.0, 4884.0, 4882.0, 4884.0, 4854.0, 4882.0, 4856.0, 4884.0, 4882.0, 4882.0, 4882.0, 4884.0, 4858.0, 4858.0, 4884.0, 4860.0, 4886.0, 4880.0, 4882.0, 4860.0, 4858.0, 4862.0, 4858.0, 4886.0, 4882.0, 4886.0, 4882.0, 4886.0, 4884.0, 4860.0, 4854.0, 4856.0, 4862.0, 4856.0, 4912.0, 4888.0, 4886.0, 4886.0, 4856.0, 4912.0, 4888.0, 4880.0, 4854.0, 4830.0, 4854.0, 4858.0, 4856.0, 4886.0, 4910.0, 4888.0, 4886.0, 4886.0, 4880.0, 4854.0, 4854.0, 4926.0, 4914.0, 4908.0, 4860.0],
      "WindowWidth": [18648.0, 18640.0, 18606.0, 18604.0, 18644.0, 18642.0, 18652.0, 18652.0, 18648.0, 18662.0, 18652.0, 18648.0, 18652.0, 18642.0, 18662.0, 18634.0, 18654.0, 18642.0, 18632.0, 18658.0, 18646.0, 18638.0, 18640.0, 18640.0, 18600.0, 18650.0, 18638.0, 18642.0, 18608.0, 18610.0, 18654.0, 18646.0, 18656.0, 18650.0, 18712.0, 18644.0, 18646.0, 18598.0, 18598.0, 18604.0, 18606.0, 18642.0, 18638.0, 18608.0, 18616.0, 18616.0, 18648.0, 18662.0, 18656.0, 18696.0, 18610.0, 18606.0, 18640.0, 18596.0, 18592.0, 18600.0, 18608.0, 18646.0, 18660.0, 18648.0, 18656.0, 18660.0, 18610.0, 18648.0, 18638.0, 18608.0, 18596.0, 18698.0, 18708.0, 18638.0, 18588.0, 18596.0, 18604.0, 18606.0, 18654.0, 18656.0, 18704.0, 18700.0, 18662.0, 18652.0, 18602.0, 18634.0, 18596.0, 18590.0, 18644.0, 18660.0, 18604.0, 18660.0, 18644.0, 18652.0, 18648.0, 18644.0, 18640.0, 18598.0, 18594.0, 18596.0, 18604.0, 18630.0, 18638.0, 18658.0, 18654.0, 18706.0, 18654.0, 18664.0, 18596.0, 18638.0, 18594.0, 18590.0, 18590.0, 18596.0, 18602.0, 18650.0, 18658.0, 18666.0, 18702.0, 18646.0, 18646.0, 18596.0, 18606.0, 18594.0, 18596.0, 18636.0, 18652.0, 18650.0, 18662.0, 18658.0, 18650.0, 18640.0, 18594.0, 18604.0, 18600.0, 18642.0, 18602.0, 18698.0, 18666.0, 18658.0, 18658.0, 18602.0, 18648.0, 18608.0, 18602.0, 18654.0, 18646.0, 18598.0, 18604.0, 18598.0, 18642.0, 18614.0, 18642.0, 18648.0, 18646.0, 18652.0, 18604.0, 18646.0, 18606.0, 18646.0, 18640.0, 18650.0, 18644.0, 18644.0, 18608.0, 18614.0, 18650.0, 18608.0, 18660.0, 18640.0, 18644.0, 18612.0, 18604.0, 18608.0, 18606.0, 18660.0, 18644.0, 18656.0, 18642.0, 18648.0, 18640.0, 18600.0, 18592.0, 18600.0, 18606.0, 18604.0, 18696.0, 18652.0, 18664.0, 18652.0, 18608.0, 18708.0, 18660.0, 18628.0, 18592.0, 18558.0, 18592.0, 18600.0, 18600.0, 18654.0, 18704.0, 18664.0, 18662.0, 18658.0, 18638.0, 18594.0, 18592.0, 18762.0, 18778.0, 18712.0, 18594.0]
    },
    "slices": {}
  }
}