{
  "AcquisitionMatrixPE": 104,
  "AcquisitionNumber": 1,
  "AcquisitionTime": "11:39:48.902500",
  "BandwidthPerPixelPhaseEncode": 17.17,
  "BaseResolution": 104,
  "BodyPartExamined": "BRAIN",
  "CoilCombinationMethod": "Sum of Squares",
  "ConsistencyInfo": "N4_VE11C_LATEST_20160120",
  "ConversionSoftware": "dcm2niix",
  "ConversionSoftwareVersion": "v1.0.20211006",
  "DerivedVendorReportedEchoSpacing": 0.000560011,
  "DeviceSerialNumber": "167006",
  "DwellTime": 2.1e-06,
  "EchoTime": 0.037,
  "EchoTime1": 0.037,
  "EchoTime2": 0.001,
  "EchoTrainLength": 104,
  "EffectiveEchoSpacing": 0.000560011,
  "FlipAngle": 52,
  "HeudiconvVersion": "0.10.0",
  "ImageComments": "Unaliased MB4/PE3/LB",
  "ImageOrientationPatientDICOM": [0.999622, 0.00462033, 0.0270994, 0.00977042, 0.861702, -0.507321],
  "ImageOrientationText": "Tra>Cor(-30.5)>Sag(1.5)",
  "ImageType": [
    "ORIGINAL",
    "PRIMARY",
    "P",
    "MB",
    "ND",
    "MOSAIC",
    "PHASE"
],
  "ImagingFrequency": 123.259,
  "InPlanePhaseEncodingDirectionDICOM": "COL",
  "InstitutionAddress": "Chemin Queen-Mary 4565,Montreal,District,CA,H3W 1W5",
  "InstitutionName": "IUGM",
  "InstitutionalDepartmentName": "Department",
  "MRAcquisitionType": "2D",
  "MagneticFieldStrength": 3,
  "Manufacturer": "Siemens",
  "ManufacturersModelName": "Prisma_fit",
  "MatrixCoilMode": "SENSE",
  "Modality": "MR",
  "MultibandAccelerationFactor": 4,
  "PartialFourier": 1,
  "PatientPosition": "HFS",
  "PercentPhaseFOV": 100,
  "PercentSampling": 100,
  "PhaseEncodingDirection": "j",
  "PhaseEncodingSteps": 104,
  "PhaseResolution": 1,
  "PixelBandwidth": 2290,
  "ProcedureStepDescription": "games^gamepad",
  "ProtocolName": "func_task-gamepad_run-2",
  "PulseSequenceDetails": "%CustomerSeq%\\cmrr_mbep2d_bold",
  "ReceiveCoilActiveElements": "HC1-7;NC1,2",
  "ReceiveCoilName": "HeadNeck_64",
  "ReconMatrixPE": 104,
  "RepetitionTime": 1.49,
  "SAR": 0.0658831,
  "ScanOptions": "FS",
  "ScanningSequence": "EP",
  "SequenceName": "epfid2d1_104",
  "SequenceVariant": "SK\\SS",
  "SeriesDescription": "func_task-gamepad_run-2",
  "SeriesNumber": 14,
  "ShimSetting": [620, -7211, -8850, 271, 7, -149, -22, -29],
  "SliceThickness": 2,
  "SliceTiming": [0, 0.785, 0.1, 0.8825, 0.1975, 0.98, 0.295, 1.0775, 0.3925, 1.1775, 0.49, 1.275, 0.59, 1.3725, 0.6875, 0, 0.785, 0.1, 0.8825, 0.1975, 0.98, 0.295, 1.0775, 0.3925, 1.1775, 0.49, 1.275, 0.59, 1.3725, 0.6875, 0, 0.785, 0.1, 0.8825, 0.1975, 0.98, 0.295, 1.0775, 0.3925, 1.1775, 0.49, 1.275, 0.59, 1.3725, 0.6875, 0, 0.785, 0.1, 0.8825, 0.1975, 0.98, 0.295, 1.0775, 0.3925, 1.1775, 0.49, 1.275, 0.59, 1.3725, 0.6875],
  "SoftwareVersions": "syngo MR E11",
  "SpacingBetweenSlices": 2,
  "StationName": "MRC35049",
  "TaskName": "gamepad",
  "TotalReadoutTime": 0.0576811,
  "TxRefAmp": 309.95,
  "WipMemBlock": "d2a0e527-7b7f-4f21-b7a1-13fcf52726ba||Sequence: R016 ve11c/master r/e634e98; Dec 19 2017 11:00:25 by eja",
  "dcmmeta_affine": [
    [-1.9992440938949585, 0.019540833309292793, 0.0513911135494709, 104.42202758789062],
    [-0.009240655228495598, 1.7234036922454834, -1.0147877931594849, -51.31360626220703],
    [0.05419871583580971, 1.0146416425704956, 1.722662091255188, -80.00968170166016],
    [0.0, 0.0, 0.0, 1.0]
],
  "dcmmeta_reorient_transform": [
    [0.0, -1.0, 0.0, 103.0],
    [1.0, 0.0, 0.0, 0.0],
    [0.0, 0.0, 1.0, 0.0],
    [0.0, 0.0, 0.0, 1.0]
],
  "dcmmeta_shape": [104, 104, 60, 207],
  "dcmmeta_slice_dim": 2,
  "dcmmeta_version": 0.6,
  "global": {
    "const": {
      "AcquisitionMatrix": [104, 0, 0, 104],
      "AngioFlag": "N",
      "BitsAllocated": 16,
      "BitsStored": 16,
      "BodyPartExamined": "BRAIN",
      "Columns": 832,
      "EchoNumbers": 1,
      "EchoTime": 37.0,
      "EchoTrainLength": 104,
      "FlipAngle": 52.0,
      "HighBit": 15,
      "ImageOrientationPatient": [0.99962206727377, 0.00462032781565, 0.02709935774502, 0.0097704163946, 0.86170186515269, -0.5073208398596],
      "ImagePositionPatient": [-841.27246302947, -756.87953278086, 374.09964917219],
      "ImageType": [
        "ORIGINAL",
        "PRIMARY",
        "P",
        "MB",
        "ND",
        "MOSAIC"
],
      "ImagedNucleus": "1H",
      "ImagingFrequency": 123.258886,
      "InPlanePhaseEncodingDirection": "COL",
      "LargestImagePixelValue": 4095,
      "MRAcquisitionType": "2D",
      "MagneticFieldStrength": 3.0,
      "Manufacturer": "SIEMENS",
      "ManufacturerModelName": "Prisma_fit",
      "Modality": "MR",
      "NumberOfAverages": 1.0,
      "NumberOfPhaseEncodingSteps": 104,
      "PercentPhaseFieldOfView": 100.0,
      "PercentSampling": 100.0,
      "PerformedProcedureStepStartTime": "112913.070000",
      "PhotometricInterpretation": "MONOCHROME2",
      "PixelBandwidth": 2290.0,
      "PixelRepresentation": 0,
      "PixelSpacing": [2.0, 2.0],
      "ProtocolName": "func_task-gamepad_run-2",
      "RepetitionTime": 1490.0,
      "RescaleIntercept": -4096.0,
      "RescaleSlope": 2.0,
      "RescaleType": "US",
      "Rows": 832,
      "SAR": 0.0658831266137,
      "SamplesPerPixel": 1,
      "ScanOptions": "FS",
      "ScanningSequence": "EP",
      "SequenceName": "epfid2d1_104",
      "SequenceVariant": [
        "SK",
        "SS"
],
      "SeriesDescription": "func_task-gamepad_run-2",
      "SeriesNumber": 14,
      "SeriesTime": "114110.246000",
      "SliceLocation": -40.195432074698,
      "SliceThickness": 2.0,
      "SmallestImagePixelValue": 0,
      "SoftwareVersions": "syngo MR E11",
      "SpacingBetweenSlices": 2.0000000343063,
      "SpecificCharacterSet": "ISO_IR 100",
      "StudyID": "1",
      "StudyTime": "112912.985000",
      "TransmitCoilName": "Body",
      "VariableFlipAngleFlag": "N",
      "WindowCenterWidthExplanation": "Algo1",
      "dBdt": 0.0},
    "slices": {}
  },
  "time": {
    "samples": {
      "AcquisitionNumber": [1, 2, 3, 4, 5, 6, 7, 8, 9, 10, 11, 12, 13, 14, 15, 16, 17, 18, 19, 20, 21, 22, 23, 24, 25, 26, 27, 28, 29, 30, 31, 32, 33, 34, 35, 36, 37, 38, 39, 40, 41, 42, 43, 44, 45, 46, 47, 48, 49, 50, 51, 52, 53, 54, 55, 56, 57, 58, 59, 60, 61, 62, 63, 64, 65, 66, 67, 68, 69, 70, 71, 72, 73, 74, 75, 76, 77, 78, 79, 80, 81, 82, 83, 84, 85, 86, 87, 88, 89, 90, 91, 92, 93, 94, 95, 96, 97, 98, 99, 100, 101, 102, 103, 104, 105, 106, 107, 108, 109, 110, 111, 112, 113, 114, 115, 116, 117, 118, 119, 120, 121, 122, 123, 124, 125, 126, 127, 128, 129, 130, 131, 132, 133, 134, 135, 136, 137, 138, 139, 140, 141, 142, 143, 144, 145, 146, 147, 148, 149, 150, 151, 152, 153, 154, 155, 156, 157, 158, 159, 160, 161, 162, 163, 164, 165, 166, 167, 168, 169, 170, 171, 172, 173, 174, 175, 176, 177, 178, 179, 180, 181, 182, 183, 184, 185, 186, 187, 188, 189, 190, 191, 192, 193, 194, 195, 196, 197, 198, 199, 200, 201, 202, 203, 204, 205, 206, 207],
      "AcquisitionTime": ["113948.902500", "113950.392500", "113951.882500", "113953.372500", "113954.862500", "113956.352500", "113957.842500", "113959.332500", "114000.822500", "114002.312500", "114003.802500", "114005.292500", "114006.782500", "114008.272500", "114009.762500", "114011.252500", "114012.742500", "114014.232500", "114015.722500", "114017.212500", "114018.702500", "114020.192500", "114021.682500", "114023.172500", "114024.662500", "114026.152500", "114027.642500", "114029.132500", "114030.622500", "114032.112500", "114033.602500", "114035.092500", "114036.582500", "114038.072500", "114039.562500", "114041.052500", "114042.542500", "114044.032500", "114045.522500", "114047.012500", "114048.502500", "114049.992500", "114051.482500", "114052.972500", "114054.462500", "114055.952500", "114057.442500", "114058.932500", "114100.422500", "114101.912500", "114103.402500", "114104.892500", "114106.382500", "114107.872500", "114109.362500", "114110.852500", "114112.342500", "114113.832500", "114115.322500", "114116.812500", "114118.302500", "114119.792500", "114121.282500", "114122.772500", "114124.262500", "114125.752500", "114127.242500", "114128.732500", "114130.222500", "114131.712500", "114133.202500", "114134.692500", "114136.182500", "114137.672500", "114139.162500", "114140.652500", "114142.142500", "114143.632500", "114145.122500", "114146.612500", "114148.102500", "114149.592500", "114151.082500", "114152.572500", "114154.062500", "114155.552500", "114157.042500", "114158.532500", "114200.022500", "114201.512500", "114203.002500", "114204.492500", "114205.982500", "114207.472500", "114208.962500", "114210.452500", "114211.942500", "114213.432500", "114214.922500", "114216.412500", "114217.902500", "114219.392500", "114220.882500", "114222.372500", "114223.862500", "114225.352500", "114226.842500", "114228.332500", "114229.822500", "114231.312500", "114232.802500", "114234.292500", "114235.782500", "114237.272500", "114238.762500", "114240.252500", "114241.742500", "114243.232500", "114244.722500", "114246.212500", "114247.702500", "114249.192500", "114250.682500", "114252.172500", "114253.662500", "114255.152500", "114256.642500", "114258.132500", "114259.622500", "114301.112500", "114302.602500", "114304.092500", "114305.582500", "114307.072500", "114308.562500", "114310.052500", "114311.542500", "114313.032500", "114314.522500", "114316.012500", "114317.502500", "114318.992500", "114320.482500", "114321.972500", "114323.462500", "114324.952500", "114326.442500", "114327.932500", "114329.422500", "114330.912500", "114332.402500", "114333.892500", "114335.382500", "114336.872500", "114338.362500", "114339.852500", "114341.342500", "114342.832500", "114344.322500", "114345.812500", "114347.302500", "114348.792500", "114350.282500", "114351.772500", "114353.262500", "114354.752500", "114356.242500", "114357.732500", "114359.222500", "114400.712500", "114402.202500", "114403.692500", "114405.182500", "114406.672500", "114408.162500", "114409.652500", "114411.142500", "114412.632500", "114414.122500", "114415.612500", "114417.102500", "114418.592500", "114420.082500", "114421.572500", "114423.062500", "114424.552500", "114426.042500", "114427.532500", "114429.022500", "114430.512500", "114432.002500", "114433.492500", "114434.982500", "114436.472500", "114437.962500", "114439.452500", "114440.942500", "114442.432500", "114443.922500", "114445.412500", "114446.902500", "114448.392500", "114449.882500", "114451.372500", "114452.862500", "114454.352500", "114455.842500"],
      "ContentTime": ["114110.248000", "114110.251000", "114110.261000", "114110.264000", "114110.266000", "114110.269000", "114110.271000", "114110.274000", "114110.276000", "114110.279000", "114110.281000", "114110.284000", "114110.286000", "114110.289000", "114110.291000", "114110.294000", "114110.296000", "114110.299000", "114110.301000", "114110.304000", "114110.306000", "114110.309000", "114110.311000", "114110.314000", "114110.316000", "114110.319000", "114130.206000", "114130.208000", "114130.211000", "114130.214000", "114130.216000", "114130.219000", "114130.221000", "114130.224000", "114130.226000", "114130.229000", "114130.231000", "114130.234000", "114130.237000", "114130.239000", "114130.241000", "114130.244000", "114130.247000", "114130.249000", "114130.251000", "114130.254000", "114130.257000", "114150.218000", "114150.220000", "114150.223000", "114150.226000", "114150.228000", "114150.231000", "114150.233000", "114150.236000", "114150.238000", "114150.241000", "114150.243000", "114150.246000", "114150.249000", "114150.252000", "114150.254000", "114150.257000", "114150.259000", "114150.262000", "114150.264000", "114150.267000", "114210.205000", "114210.207000", "114210.210000", "114210.212000", "114210.215000", "114210.217000", "114210.220000", "114210.222000", "114210.225000", "114210.227000", "114210.230000", "114210.232000", "114210.235000", "114210.237000", "114210.240000", "114210.242000", "114210.245000", "114210.247000", "114210.250000", "114210.252000", "114230.198000", "114230.201000", "114230.204000", "114230.206000", "114230.209000", "114230.211000", "114230.214000", "114230.216000", "114230.219000", "114230.221000", "114230.224000", "114230.227000", "114230.229000", "114230.232000", "114230.234000", "114230.240000", "114230.243000", "114230.245000", "114230.248000", "114230.250000", "114310.223000", "114310.226000", "114310.228000", "114310.231000", "114310.234000", "114310.236000", "114310.239000", "114310.242000", "114310.244000", "114310.252000", "114310.255000", "114310.257000", "114310.260000", "114310.262000", "114310.265000", "114310.267000", "114310.270000", "114310.273000", "114310.275000", "114310.278000", "114310.280000", "114310.283000", "114310.285000", "114310.288000", "114310.290000", "114310.293000", "114310.295000", "114350.253000", "114350.256000", "114350.258000", "114350.261000", "114350.263000", "114350.266000", "114350.269000", "114350.271000", "114350.274000", "114350.276000", "114350.279000", "114350.281000", "114350.284000", "114350.287000", "114350.289000", "114350.292000", "114350.294000", "114350.297000", "114350.299000", "114350.302000", "114350.304000", "114350.307000", "114350.309000", "114350.312000", "114350.315000", "114350.317000", "114350.320000", "114430.216000", "114430.219000", "114430.221000", "114430.224000", "114430.227000", "114430.229000", "114430.232000", "114430.234000", "114430.237000", "114430.239000", "114430.242000", "114430.245000", "114430.247000", "114430.250000", "114430.252000", "114430.255000", "114430.257000", "114430.260000", "114430.262000", "114430.265000", "114430.267000", "114430.270000", "114430.273000", "114430.275000", "114430.278000", "114430.281000", "114430.283000", "114458.256000", "114458.259000", "114458.261000", "114458.264000", "114458.267000", "114458.269000", "114458.272000", "114458.281000", "114458.283000", "114458.286000", "114458.288000", "114458.291000", "114458.293000", "114458.296000", "114458.298000", "114458.301000", "114458.303000", "114458.306000", "114458.308000"],
      "InstanceCreationTime": ["114110.248000", "114110.251000", "114110.261000", "114110.264000", "114110.266000", "114110.269000", "114110.271000", "114110.274000", "114110.276000", "114110.279000", "114110.281000", "114110.284000", "114110.286000", "114110.289000", "114110.291000", "114110.294000", "114110.296000", "114110.299000", "114110.301000", "114110.304000", "114110.306000", "114110.309000", "114110.311000", "114110.314000", "114110.316000", "114110.319000", "114130.206000", "114130.208000", "114130.211000", "114130.214000", "114130.216000", "114130.219000", "114130.221000", "114130.224000", "114130.226000", "114130.229000", "114130.231000", "114130.234000", "114130.237000", "114130.239000", "114130.241000", "114130.244000", "114130.247000", "114130.249000", "114130.251000", "114130.254000", "114130.257000", "114150.218000", "114150.220000", "114150.223000", "114150.226000", "114150.228000", "114150.231000", "114150.233000", "114150.236000", "114150.238000", "114150.241000", "114150.243000", "114150.246000", "114150.249000", "114150.252000", "114150.254000", "114150.257000", "114150.259000", "114150.262000", "114150.264000", "114150.267000", "114210.205000", "114210.207000", "114210.210000", "114210.212000", "114210.215000", "114210.217000", "114210.220000", "114210.222000", "114210.225000", "114210.227000", "114210.230000", "114210.232000", "114210.235000", "114210.237000", "114210.240000", "114210.242000", "114210.245000", "114210.247000", "114210.250000", "114210.252000", "114230.198000", "114230.201000", "114230.204000", "114230.206000", "114230.209000", "114230.211000", "114230.214000", "114230.216000", "114230.219000", "114230.221000", "114230.224000", "114230.227000", "114230.229000", "114230.232000", "114230.234000", "114230.240000", "114230.243000", "114230.245000", "114230.248000", "114230.250000", "114310.223000", "114310.226000", "114310.228000", "114310.231000", "114310.234000", "114310.236000", "114310.239000", "114310.242000", "114310.244000", "114310.252000", "114310.255000", "114310.257000", "114310.260000", "114310.262000", "114310.265000", "114310.267000", "114310.270000", "114310.273000", "114310.275000", "114310.278000", "114310.280000", "114310.283000", "114310.285000", "114310.288000", "114310.290000", "114310.293000", "114310.295000", "114350.253000", "114350.256000", "114350.258000", "114350.261000", "114350.263000", "114350.266000", "114350.269000", "114350.271000", "114350.274000", "114350.276000", "114350.279000", "114350.281000", "114350.284000", "114350.287000", "114350.289000", "114350.292000", "114350.294000", "114350.297000", "114350.299000", "114350.302000", "114350.304000", "114350.307000", "114350.309000", "114350.312000", "114350.315000", "114350.317000", "114350.320000", "114430.216000", "114430.219000", "114430.221000", "114430.224000", "114430.227000", "114430.229000", "114430.232000", "114430.234000", "114430.237000", "114430.239000", "114430.242000", "114430.245000", "114430.247000", "114430.250000", "114430.252000", "114430.255000", "114430.257000", "114430.260000", "114430.262000", "114430.265000", "114430.267000", "114430.270000", "114430.273000", "114430.275000", "114430.278000", "114430.281000", "114430.283000", "114458.256000", "114458.259000", "114458.261000", "114458.264000", "114458.267000", "114458.269000", "114458.272000", "114458.281000", "114458.283000", "114458.286000", "114458.288000", "114458.291000", "114458.293000", "114458.296000", "114458.298000", "114458.301000", "114458.303000", "114458.306000", "114458.308000"],
      "InstanceNumber": [1, 2, 3, 4, 5, 6, 7, 8, 9, 10, 11, 12, 13, 14, 15, 16, 17, 18, 19, 20, 21, 22, 23, 24, 25, 26, 27, 28, 29, 30, 31, 32, 33, 34, 35, 36, 37, 38, 39, 40, 41, 42, 43, 44, 45, 46, 47, 48, 49, 50, 51, 52, 53, 54, 55, 56, 57, 58, 59, 60, 61, 62, 63, 64, 65, 66, 67, 68, 69, 70, 71, 72, 73, 74, 75, 76, 77, 78, 79, 80, 81, 82, 83, 84, 85, 86, 87, 88, 89, 90, 91, 92, 93, 94, 95, 96, 97, 98, 99, 100, 101, 102, 103, 104, 105, 106, 107, 108, 109, 110, 111, 112, 113, 114, 115, 116, 117, 118, 119, 120, 121, 122, 123, 124, 125, 126, 127, 128, 129, 130, 131, 132, 133, 134, 135, 136, 137, 138, 139, 140, 141, 142, 143, 144, 145, 146, 147, 148, 149, 150, 151, 152, 153, 154, 155, 156, 157, 158, 159, 160, 161, 162, 163, 164, 165, 166, 167, 168, 169, 170, 171, 172, 173, 174, 175, 176, 177, 178, 179, 180, 181, 182, 183, 184, 185, 186, 187, 188, 189, 190, 191, 192, 193, 194, 195, 196, 197, 198, 199, 200, 201, 202, 203, 204, 205, 206, 207],
      "WindowCenter": [4844.0, 4866.0, 4844.0, 4868.0, 4866.0, 4846.0, 4844.0, 4842.0, 4842.0, 4838.0, 4840.0, 4782.0, 4786.0, 4780.0, 4870.0, 4844.0, 4846.0, 4842.0, 4866.0, 4868.0, 4808.0, 4768.0, 4748.0, 4774.0, 4778.0, 4778.0, 4866.0, 4864.0, 4868.0, 4868.0, 4844.0, 4780.0, 4774.0, 4804.0, 4844.0, 4866.0, 4866.0, 4868.0, 4868.0, 4842.0, 4802.0, 4788.0, 4772.0, 4810.0, 4866.0, 4866.0, 4868.0, 4868.0, 4866.0, 4834.0, 4774.0, 4786.0, 4774.0, 4812.0, 4870.0, 4868.0, 4846.0, 4866.0, 4818.0, 4808.0, 4806.0, 4834.0, 4838.0, 4840.0, 4840.0, 4780.0, 4780.0, 4810.0, 4866.0, 4864.0, 4866.0, 4866.0, 4866.0, 4810.0, 4766.0, 4768.0, 4766.0, 4772.0, 4776.0, 4774.0, 4804.0, 4862.0, 4866.0, 4866.0, 4864.0, 4868.0, 4838.0, 4802.0, 4772.0, 4766.0, 4768.0, 4800.0, 4806.0, 4836.0, 4840.0, 4810.0, 4836.0, 4836.0, 4834.0, 4836.0, 4810.0, 4840.0, 4840.0, 4808.0, 4836.0, 4810.0, 4806.0, 4810.0, 4804.0, 4840.0, 4804.0, 4776.0, 4806.0, 4838.0, 4840.0, 4868.0, 4842.0, 4860.0, 4836.0, 4806.0, 4774.0, 4770.0, 4772.0, 4774.0, 4802.0, 4830.0, 4778.0, 4774.0, 4840.0, 4864.0, 4864.0, 4844.0, 4840.0, 4836.0, 4834.0, 4798.0, 4802.0, 4798.0, 4802.0, 4834.0, 4776.0, 4778.0, 4842.0, 4838.0, 4866.0, 4862.0, 4840.0, 4838.0, 4806.0, 4798.0, 4806.0, 4806.0, 4800.0, 4774.0, 4804.0, 4774.0, 4780.0, 4774.0, 4864.0, 4866.0, 4864.0, 4866.0, 4864.0, 4840.0, 4800.0, 4770.0, 4762.0, 4766.0, 4796.0, 4798.0, 4806.0, 4832.0, 4778.0, 4782.0, 4804.0, 4862.0, 4868.0, 4868.0, 4868.0, 4864.0, 4770.0, 4788.0, 4784.0, 4764.0, 4806.0, 4868.0, 4868.0, 4866.0, 4864.0, 4836.0, 4770.0, 4792.0, 4796.0, 4774.0, 4838.0, 4864.0, 4842.0, 4846.0, 4868.0, 4860.0, 4772.0, 4748.0, 4752.0, 4752.0, 4778.0, 4788.0, 4778.0],
      "WindowWidth": [18660.0, 18690.0, 18662.0, 18692.0, 18692.0, 18664.0, 18662.0, 18660.0, 18664.0, 18660.0, 18660.0, 18564.0, 18550.0, 18554.0, 18696.0, 18648.0, 18640.0, 18636.0, 18678.0, 18694.0, 18618.0, 18550.0, 18522.0, 18552.0, 18552.0, 18570.0, 18696.0, 18682.0, 18678.0, 18684.0, 18650.0, 18550.0, 18552.0, 18610.0, 18666.0, 18694.0, 18682.0, 18690.0, 18694.0, 18668.0, 18598.0, 18562.0, 18548.0, 18620.0, 18694.0, 18680.0, 18678.0, 18686.0, 18696.0, 18656.0, 18550.0, 18560.0, 18548.0, 18616.0, 18692.0, 18676.0, 18646.0, 18688.0, 18620.0, 18610.0, 18612.0, 18654.0, 18660.0, 18664.0, 18660.0, 18558.0, 18548.0, 18612.0, 18690.0, 18676.0, 18680.0, 18686.0, 18696.0, 18630.0, 18556.0, 18548.0, 18552.0, 18566.0, 18570.0, 18550.0, 18612.0, 18686.0, 18688.0, 18690.0, 18688.0, 18696.0, 18666.0, 18610.0, 18570.0, 18556.0, 18562.0, 18614.0, 18622.0, 18664.0, 18666.0, 18618.0, 18660.0, 18668.0, 18662.0, 18668.0, 18620.0, 18662.0, 18664.0, 18618.0, 18660.0, 18624.0, 18624.0, 18626.0, 18620.0, 18670.0, 18610.0, 18556.0, 18618.0, 18670.0, 18658.0, 18700.0, 18664.0, 18694.0, 18666.0, 18622.0, 18574.0, 18568.0, 18572.0, 18570.0, 18616.0, 18656.0, 18564.0, 18566.0, 18660.0, 18692.0, 18692.0, 18666.0, 18666.0, 18662.0, 18664.0, 18602.0, 18612.0, 18606.0, 18616.0, 18660.0, 18564.0, 18562.0, 18668.0, 18664.0, 18698.0, 18694.0, 18666.0, 18664.0, 18622.0, 18614.0, 18616.0, 18616.0, 18612.0, 18572.0, 18624.0, 18562.0, 18546.0, 18560.0, 18696.0, 18696.0, 18684.0, 18686.0, 18694.0, 18670.0, 18608.0, 18566.0, 18554.0, 18556.0, 18608.0, 18606.0, 18624.0, 18658.0, 18558.0, 18546.0, 18608.0, 18690.0, 18678.0, 18676.0, 18688.0, 18702.0, 18552.0, 18566.0, 18562.0, 18552.0, 18626.0, 18696.0, 18684.0, 18682.0, 18692.0, 18664.0, 18560.0, 18562.0, 18568.0, 18548.0, 18664.0, 18682.0, 18638.0, 18642.0, 18684.0, 18696.0, 18570.0, 18528.0, 18528.0, 18530.0, 18554.0, 18554.0, 18552.0]
    },
    "slices": {}
  }
}