{
  "AcquisitionMatrixPE": 104,
  "AcquisitionNumber": 1,
  "AcquisitionTime": "11:39:48.902500",
  "B0FieldSource": "sub-02_ses-002_task-gamepad_run-02_part-mag_bold.nii.gz",
  "BandwidthPerPixelPhaseEncode": 17.17,
  "BaseResolution": 104,
  "BodyPartExamined": "BRAIN",
  "CoilCombinationMethod": "Sum of Squares",
  "ConsistencyInfo": "N4_VE11C_LATEST_20160120",
  "ConversionSoftware": "dcm2niix",
  "ConversionSoftwareVersion": "v1.0.20211006",
  "DerivedVendorReportedEchoSpacing": 0.000560011,
  "DeviceSerialNumber": "167006",
  "DwellTime": 2.1e-06,
  "EchoTime": 0.037,
  "EchoTrainLength": 104,
  "EffectiveEchoSpacing": 0.000560011,
  "FlipAngle": 52,
  "HeudiconvVersion": "0.10.0",
  "ImageComments": "Unaliased MB4/PE3/LB",
  "ImageOrientationPatientDICOM": [0.999622, 0.00462033, 0.0270994, 0.00977042, 0.861702, -0.507321],
  "ImageOrientationText": "Tra>Cor(-30.5)>Sag(1.5)",
  "ImageType": [
    "ORIGINAL",
    "PRIMARY",
    "M",
    "MB",
    "ND",
    "MOSAIC"
],
  "ImagingFrequency": 123.259,
  "InPlanePhaseEncodingDirectionDICOM": "COL",
  "InstitutionAddress": "Chemin Queen-Mary 4565,Montreal,District,CA,H3W 1W5",
  "InstitutionName": "IUGM",
  "InstitutionalDepartmentName": "Department",
  "MRAcquisitionType": "2D",
  "MagneticFieldStrength": 3,
  "Manufacturer": "Siemens",
  "ManufacturersModelName": "Prisma_fit",
  "MatrixCoilMode": "SENSE",
  "Modality": "MR",
  "MultibandAccelerationFactor": 4,
  "PartialFourier": 1,
  "PatientPosition": "HFS",
  "PercentPhaseFOV": 100,
  "PercentSampling": 100,
  "PhaseEncodingDirection": "j",
  "PhaseEncodingSteps": 104,
  "PhaseResolution": 1,
  "PixelBandwidth": 2290,
  "ProcedureStepDescription": "games^gamepad",
  "ProtocolName": "func_task-gamepad_run-2",
  "PulseSequenceDetails": "%CustomerSeq%\\cmrr_mbep2d_bold",
  "ReceiveCoilActiveElements": "HC1-7;NC1,2",
  "ReceiveCoilName": "HeadNeck_64",
  "ReconMatrixPE": 104,
  "RepetitionTime": 1.49,
  "SAR": 0.0658831,
  "ScanOptions": "FS",
  "ScanningSequence": "EP",
  "SequenceName": "epfid2d1_104",
  "SequenceVariant": "SK\\SS",
  "SeriesDescription": "func_task-gamepad_run-2",
  "SeriesNumber": 13,
  "ShimSetting": [620, -7211, -8850, 271, 7, -149, -22, -29],
  "SliceThickness": 2,
  "SliceTiming": [0, 0.785, 0.1, 0.8825, 0.1975, 0.98, 0.295, 1.0775, 0.3925, 1.1775, 0.49, 1.275, 0.59, 1.3725, 0.6875, 0, 0.785, 0.1, 0.8825, 0.1975, 0.98, 0.295, 1.0775, 0.3925, 1.1775, 0.49, 1.275, 0.59, 1.3725, 0.6875, 0, 0.785, 0.1, 0.8825, 0.1975, 0.98, 0.295, 1.0775, 0.3925, 1.1775, 0.49, 1.275, 0.59, 1.3725, 0.6875, 0, 0.785, 0.1, 0.8825, 0.1975, 0.98, 0.295, 1.0775, 0.3925, 1.1775, 0.49, 1.275, 0.59, 1.3725, 0.6875],
  "SoftwareVersions": "syngo MR E11",
  "SpacingBetweenSlices": 2,
  "StationName": "MRC35049",
  "TaskName": "gamepad",
  "TotalReadoutTime": 0.0576811,
  "TxRefAmp": 309.95,
  "WipMemBlock": "d2a0e527-7b7f-4f21-b7a1-13fcf52726ba||Sequence: R016 ve11c/master r/e634e98; Dec 19 2017 11:00:25 by eja",
  "dcmmeta_affine": [
    [-1.9992440938949585, 0.019540833309292793, 0.0513911135494709, 104.42202758789062],
    [-0.009240655228495598, 1.7234036922454834, -1.0147877931594849, -51.31360626220703],
    [0.05419871583580971, 1.0146416425704956, 1.722662091255188, -80.00968170166016],
    [0.0, 0.0, 0.0, 1.0]
],
  "dcmmeta_reorient_transform": [
    [0.0, -1.0, 0.0, 103.0],
    [1.0, 0.0, 0.0, 0.0],
    [0.0, 0.0, 1.0, 0.0],
    [0.0, 0.0, 0.0, 1.0]
],
  "dcmmeta_shape": [104, 104, 60, 207],
  "dcmmeta_slice_dim": 2,
  "dcmmeta_version": 0.6,
  "global": {
    "const": {
      "AcquisitionMatrix": [104, 0, 0, 104],
      "AngioFlag": "N",
      "BitsAllocated": 16,
      "BitsStored": 16,
      "BodyPartExamined": "BRAIN",
      "Columns": 832,
      "EchoNumbers": 1,
      "EchoTime": 37.0,
      "EchoTrainLength": 104,
      "FlipAngle": 52.0,
      "HighBit": 15,
      "ImageOrientationPatient": [0.99962206727377, 0.00462032781565, 0.02709935774502, 0.0097704163946, 0.86170186515269, -0.5073208398596],
      "ImagePositionPatient": [-841.27246302947, -756.87953278086, 374.09964917219],
      "ImageType": [
        "ORIGINAL",
        "PRIMARY",
        "M",
        "MB",
        "ND",
        "MOSAIC"
],
      "ImagedNucleus": "1H",
      "ImagingFrequency": 123.258886,
      "InPlanePhaseEncodingDirection": "COL",
      "MRAcquisitionType": "2D",
      "MagneticFieldStrength": 3.0,
      "Manufacturer": "SIEMENS",
      "ManufacturerModelName": "Prisma_fit",
      "Modality": "MR",
      "NumberOfAverages": 1.0,
      "NumberOfPhaseEncodingSteps": 104,
      "PercentPhaseFieldOfView": 100.0,
      "PercentSampling": 100.0,
      "PerformedProcedureStepStartTime": "112913.070000",
      "PhotometricInterpretation": "MONOCHROME2",
      "PixelBandwidth": 2290.0,
      "PixelRepresentation": 0,
      "PixelSpacing": [2.0, 2.0],
      "ProtocolName": "func_task-gamepad_run-2",
      "RepetitionTime": 1490.0,
      "Rows": 832,
      "SAR": 0.0658831266137,
      "SamplesPerPixel": 1,
      "ScanOptions": "FS",
      "ScanningSequence": "EP",
      "SequenceName": "epfid2d1_104",
      "SequenceVariant": [
        "SK",
        "SS"
],
      "SeriesDescription": "func_task-gamepad_run-2",
      "SeriesNumber": 13,
      "SeriesTime": "114110.106000",
      "SliceLocation": -40.195432074698,
      "SliceThickness": 2.0,
      "SmallestImagePixelValue": 0,
      "SoftwareVersions": "syngo MR E11",
      "SpacingBetweenSlices": 2.0000000343063,
      "SpecificCharacterSet": "ISO_IR 100",
      "StudyID": "1",
      "StudyTime": "112912.985000",
      "TransmitCoilName": "Body",
      "VariableFlipAngleFlag": "N",
      "WindowCenterWidthExplanation": "Algo1",
      "dBdt": 0.0},
    "slices": {}
  },
  "time": {
    "samples": {
      "AcquisitionNumber": [1, 2, 3, 4, 5, 6, 7, 8, 9, 10, 11, 12, 13, 14, 15, 16, 17, 18, 19, 20, 21, 22, 23, 24, 25, 26, 27, 28, 29, 30, 31, 32, 33, 34, 35, 36, 37, 38, 39, 40, 41, 42, 43, 44, 45, 46, 47, 48, 49, 50, 51, 52, 53, 54, 55, 56, 57, 58, 59, 60, 61, 62, 63, 64, 65, 66, 67, 68, 69, 70, 71, 72, 73, 74, 75, 76, 77, 78, 79, 80, 81, 82, 83, 84, 85, 86, 87, 88, 89, 90, 91, 92, 93, 94, 95, 96, 97, 98, 99, 100, 101, 102, 103, 104, 105, 106, 107, 108, 109, 110, 111, 112, 113, 114, 115, 116, 117, 118, 119, 120, 121, 122, 123, 124, 125, 126, 127, 128, 129, 130, 131, 132, 133, 134, 135, 136, 137, 138, 139, 140, 141, 142, 143, 144, 145, 146, 147, 148, 149, 150, 151, 152, 153, 154, 155, 156, 157, 158, 159, 160, 161, 162, 163, 164, 165, 166, 167, 168, 169, 170, 171, 172, 173, 174, 175, 176, 177, 178, 179, 180, 181, 182, 183, 184, 185, 186, 187, 188, 189, 190, 191, 192, 193, 194, 195, 196, 197, 198, 199, 200, 201, 202, 203, 204, 205, 206, 207],
      "AcquisitionTime": ["113948.902500", "113950.392500", "113951.882500", "113953.372500", "113954.862500", "113956.352500", "113957.842500", "113959.332500", "114000.822500", "114002.312500", "114003.802500", "114005.292500", "114006.782500", "114008.272500", "114009.762500", "114011.252500", "114012.742500", "114014.232500", "114015.722500", "114017.212500", "114018.702500", "114020.192500", "114021.682500", "114023.172500", "114024.662500", "114026.152500", "114027.642500", "114029.132500", "114030.622500", "114032.112500", "114033.602500", "114035.092500", "114036.582500", "114038.072500", "114039.562500", "114041.052500", "114042.542500", "114044.032500", "114045.522500", "114047.012500", "114048.502500", "114049.992500", "114051.482500", "114052.972500", "114054.462500", "114055.952500", "114057.442500", "114058.932500", "114100.422500", "114101.912500", "114103.402500", "114104.892500", "114106.382500", "114107.872500", "114109.362500", "114110.852500", "114112.342500", "114113.832500", "114115.322500", "114116.812500", "114118.302500", "114119.792500", "114121.282500", "114122.772500", "114124.262500", "114125.752500", "114127.242500", "114128.732500", "114130.222500", "114131.712500", "114133.202500", "114134.692500", "114136.182500", "114137.672500", "114139.162500", "114140.652500", "114142.142500", "114143.632500", "114145.122500", "114146.612500", "114148.102500", "114149.592500", "114151.082500", "114152.572500", "114154.062500", "114155.552500", "114157.042500", "114158.532500", "114200.022500", "114201.512500", "114203.002500", "114204.492500", "114205.982500", "114207.472500", "114208.962500", "114210.452500", "114211.942500", "114213.432500", "114214.922500", "114216.412500", "114217.902500", "114219.392500", "114220.882500", "114222.372500", "114223.862500", "114225.352500", "114226.842500", "114228.332500", "114229.822500", "114231.312500", "114232.802500", "114234.292500", "114235.782500", "114237.272500", "114238.762500", "114240.252500", "114241.742500", "114243.232500", "114244.722500", "114246.212500", "114247.702500", "114249.192500", "114250.682500", "114252.172500", "114253.662500", "114255.152500", "114256.642500", "114258.132500", "114259.622500", "114301.112500", "114302.602500", "114304.092500", "114305.582500", "114307.072500", "114308.562500", "114310.052500", "114311.542500", "114313.032500", "114314.522500", "114316.012500", "114317.502500", "114318.992500", "114320.482500", "114321.972500", "114323.462500", "114324.952500", "114326.442500", "114327.932500", "114329.422500", "114330.912500", "114332.402500", "114333.892500", "114335.382500", "114336.872500", "114338.362500", "114339.852500", "114341.342500", "114342.832500", "114344.322500", "114345.812500", "114347.302500", "114348.792500", "114350.282500", "114351.772500", "114353.262500", "114354.752500", "114356.242500", "114357.732500", "114359.222500", "114400.712500", "114402.202500", "114403.692500", "114405.182500", "114406.672500", "114408.162500", "114409.652500", "114411.142500", "114412.632500", "114414.122500", "114415.612500", "114417.102500", "114418.592500", "114420.082500", "114421.572500", "114423.062500", "114424.552500", "114426.042500", "114427.532500", "114429.022500", "114430.512500", "114432.002500", "114433.492500", "114434.982500", "114436.472500", "114437.962500", "114439.452500", "114440.942500", "114442.432500", "114443.922500", "114445.412500", "114446.902500", "114448.392500", "114449.882500", "114451.372500", "114452.862500", "114454.352500", "114455.842500"],
      "ContentTime": ["114110.109000", "114110.113000", "114110.116000", "114110.120000", "114110.123000", "114110.126000", "114110.130000", "114110.133000", "114110.136000", "114110.140000", "114110.143000", "114110.147000", "114110.150000", "114110.153000", "114110.157000", "114110.160000", "114110.163000", "114110.167000", "114110.170000", "114110.173000", "114110.177000", "114110.180000", "114110.184000", "114110.187000", "114110.190000", "114110.193000", "114110.197000", "114130.079000", "114130.083000", "114130.086000", "114130.089000", "114130.093000", "114130.096000", "114130.099000", "114130.103000", "114130.106000", "114130.117000", "114130.120000", "114130.131000", "114130.134000", "114130.137000", "114130.140000", "114130.144000", "114130.147000", "114130.150000", "114130.154000", "114130.157000", "114150.080000", "114150.084000", "114150.087000", "114150.091000", "114150.109000", "114150.112000", "114150.116000", "114150.119000", "114150.122000", "114150.126000", "114150.129000", "114150.133000", "114150.136000", "114150.139000", "114150.143000", "114150.146000", "114150.149000", "114150.153000", "114150.156000", "114150.160000", "114210.080000", "114210.084000", "114210.088000", "114210.091000", "114210.094000", "114210.098000", "114210.101000", "114210.104000", "114210.108000", "114210.111000", "114210.125000", "114210.129000", "114210.132000", "114210.135000", "114210.139000", "114210.142000", "114210.145000", "114210.149000", "114210.152000", "114210.155000", "114230.079000", "114230.083000", "114230.086000", "114230.090000", "114230.093000", "114230.096000", "114230.100000", "114230.103000", "114230.106000", "114230.110000", "114230.113000", "114230.117000", "114230.120000", "114230.123000", "114230.127000", "114230.130000", "114230.133000", "114230.137000", "114230.140000", "114230.143000", "114310.079000", "114310.083000", "114310.086000", "114310.090000", "114310.093000", "114310.096000", "114310.100000", "114310.103000", "114310.106000", "114310.110000", "114310.113000", "114310.117000", "114310.120000", "114310.123000", "114310.127000", "114310.130000", "114310.133000", "114310.137000", "114310.140000", "114310.144000", "114310.147000", "114310.150000", "114310.154000", "114310.157000", "114310.160000", "114310.164000", "114310.167000", "114350.079000", "114350.083000", "114350.086000", "114350.090000", "114350.093000", "114350.096000", "114350.100000", "114350.103000", "114350.106000", "114350.110000", "114350.113000", "114350.116000", "114350.129000", "114350.132000", "114350.135000", "114350.139000", "114350.142000", "114350.145000", "114350.149000", "114350.152000", "114350.156000", "114350.159000", "114350.162000", "114350.166000", "114350.195000", "114350.198000", "114350.201000", "114430.080000", "114430.084000", "114430.087000", "114430.091000", "114430.094000", "114430.097000", "114430.100000", "114430.104000", "114430.107000", "114430.110000", "114430.117000", "114430.120000", "114430.124000", "114430.127000", "114430.131000", "114430.134000", "114430.137000", "114430.141000", "114430.144000", "114430.148000", "114430.151000", "114430.154000", "114430.158000", "114430.161000", "114430.164000", "114430.168000", "114430.171000", "114458.134000", "114458.137000", "114458.141000", "114458.144000", "114458.147000", "114458.151000", "114458.154000", "114458.157000", "114458.161000", "114458.164000", "114458.167000", "114458.171000", "114458.174000", "114458.177000", "114458.181000", "114458.184000", "114458.188000", "114458.191000", "114458.194000"],
      "InstanceCreationTime": ["114110.109000", "114110.113000", "114110.116000", "114110.120000", "114110.123000", "114110.126000", "114110.130000", "114110.133000", "114110.136000", "114110.140000", "114110.143000", "114110.147000", "114110.150000", "114110.153000", "114110.157000", "114110.160000", "114110.163000", "114110.167000", "114110.170000", "114110.173000", "114110.177000", "114110.180000", "114110.184000", "114110.187000", "114110.190000", "114110.193000", "114110.197000", "114130.079000", "114130.083000", "114130.086000", "114130.089000", "114130.093000", "114130.096000", "114130.099000", "114130.103000", "114130.106000", "114130.117000", "114130.120000", "114130.131000", "114130.134000", "114130.137000", "114130.140000", "114130.144000", "114130.147000", "114130.150000", "114130.154000", "114130.157000", "114150.080000", "114150.084000", "114150.087000", "114150.091000", "114150.109000", "114150.112000", "114150.116000", "114150.119000", "114150.122000", "114150.126000", "114150.129000", "114150.133000", "114150.136000", "114150.139000", "114150.143000", "114150.146000", "114150.149000", "114150.153000", "114150.156000", "114150.160000", "114210.080000", "114210.084000", "114210.088000", "114210.091000", "114210.094000", "114210.098000", "114210.101000", "114210.104000", "114210.108000", "114210.111000", "114210.125000", "114210.129000", "114210.132000", "114210.135000", "114210.139000", "114210.142000", "114210.145000", "114210.149000", "114210.152000", "114210.155000", "114230.079000", "114230.083000", "114230.086000", "114230.090000", "114230.093000", "114230.096000", "114230.100000", "114230.103000", "114230.106000", "114230.110000", "114230.113000", "114230.117000", "114230.120000", "114230.123000", "114230.127000", "114230.130000", "114230.133000", "114230.137000", "114230.140000", "114230.143000", "114310.079000", "114310.083000", "114310.086000", "114310.090000", "114310.093000", "114310.096000", "114310.100000", "114310.103000", "114310.106000", "114310.110000", "114310.113000", "114310.117000", "114310.120000", "114310.123000", "114310.127000", "114310.130000", "114310.133000", "114310.137000", "114310.140000", "114310.144000", "114310.147000", "114310.150000", "114310.154000", "114310.157000", "114310.160000", "114310.164000", "114310.167000", "114350.079000", "114350.083000", "114350.086000", "114350.090000", "114350.093000", "114350.096000", "114350.100000", "114350.103000", "114350.106000", "114350.110000", "114350.113000", "114350.116000", "114350.129000", "114350.132000", "114350.135000", "114350.139000", "114350.142000", "114350.145000", "114350.149000", "114350.152000", "114350.156000", "114350.159000", "114350.162000", "114350.166000", "114350.195000", "114350.198000", "114350.201000", "114430.080000", "114430.084000", "114430.087000", "114430.091000", "114430.094000", "114430.097000", "114430.100000", "114430.104000", "114430.107000", "114430.110000", "114430.117000", "114430.120000", "114430.124000", "114430.127000", "114430.131000", "114430.134000", "114430.137000", "114430.141000", "114430.144000", "114430.148000", "114430.151000", "114430.154000", "114430.158000", "114430.161000", "114430.164000", "114430.168000", "114430.171000", "114458.134000", "114458.137000", "114458.141000", "114458.144000", "114458.147000", "114458.151000", "114458.154000", "114458.157000", "114458.161000", "114458.164000", "114458.167000", "114458.171000", "114458.174000", "114458.177000", "114458.181000", "114458.184000", "114458.188000", "114458.191000", "114458.194000"],
      "InstanceNumber": [1, 2, 3, 4, 5, 6, 7, 8, 9, 10, 11, 12, 13, 14, 15, 16, 17, 18, 19, 20, 21, 22, 23, 24, 25, 26, 27, 28, 29, 30, 31, 32, 33, 34, 35, 36, 37, 38, 39, 40, 41, 42, 43, 44, 45, 46, 47, 48, 49, 50, 51, 52, 53, 54, 55, 56, 57, 58, 59, 60, 61, 62, 63, 64, 65, 66, 67, 68, 69, 70, 71, 72, 73, 74, 75, 76, 77, 78, 79, 80, 81, 82, 83, 84, 85, 86, 87, 88, 89, 90, 91, 92, 93, 94, 95, 96, 97, 98, 99, 100, 101, 102, 103, 104, 105, 106, 107, 108, 109, 110, 111, 112, 113, 114, 115, 116, 117, 118, 119, 120, 121, 122, 123, 124, 125, 126, 127, 128, 129, 130, 131, 132, 133, 134, 135, 136, 137, 138, 139, 140, 141, 142, 143, 144, 145, 146, 147, 148, 149, 150, 151, 152, 153, 154, 155, 156, 157, 158, 159, 160, 161, 162, 163, 164, 165, 166, 167, 168, 169, 170, 171, 172, 173, 174, 175, 176, 177, 178, 179, 180, 181, 182, 183, 184, 185, 186, 187, 188, 189, 190, 191, 192, 193, 194, 195, 196, 197, 198, 199, 200, 201, 202, 203, 204, 205, 206, 207],
      "LargestImagePixelValue": [44788, 43477, 43149, 43304, 43906, 43482, 44026, 43721, 43553, 43325, 43496, 43885, 43765, 43091, 43226, 42602, 43326, 43335, 42975, 43236, 43050, 42553, 43007, 43331, 43165, 42930, 42549, 43086, 43564, 43222, 43198, 43161, 42696, 42750, 42270, 42470, 42671, 42407, 42214, 42298, 43375, 43628, 43183, 42804, 42756, 42465, 42395, 42426, 42562, 42872, 43202, 43059, 43147, 43223, 43037, 42935, 42798, 43716, 42876, 43185, 43355, 43593, 43117, 43687, 43265, 43195, 43481, 43257, 42973, 43433, 43260, 42824, 42731, 42441, 42066, 43462, 43389, 42844, 43113, 43447, 42902, 42745, 42989, 42588, 42840, 42738, 42996, 43413, 42464, 43061, 42866, 43057, 43446, 42830, 42839, 43624, 42427, 42824, 43642, 43406, 43274, 43080, 42560, 43145, 42767, 43012, 43126, 43229, 42981, 42803, 43521, 43292, 42395, 42719, 43742, 43408, 43415, 43054, 43276, 43183, 42748, 43168, 42877, 42834, 43636, 43326, 43109, 43354, 43015, 43057, 44137, 44431, 43279, 43870, 43871, 44241, 43809, 43465, 44012, 43134, 43802, 43124, 43126, 43232, 44070, 43774, 43651, 43094, 43631, 42953, 43061, 42997, 43545, 43951, 43028, 44378, 44523, 43660, 43231, 43863, 43478, 43232, 44142, 43921, 44051, 44173, 44118, 44404, 43156, 43550, 44291, 43382, 43137, 43321, 43216, 43179, 43782, 43875, 43840, 44051, 43958, 43500, 43237, 42881, 42956, 43088, 43095, 43570, 43817, 43773, 43543, 44131, 44127, 42032, 43151, 42845, 42955, 43453, 43687, 43789, 44336, 44147, 44066, 43848, 44377, 44601, 43341],
      "WindowCenter": [11085.0, 10993.0, 10913.0, 10869.0, 10868.0, 10870.0, 10907.0, 10921.0, 10907.0, 10892.0, 10912.0, 10956.0, 11040.0, 11056.0, 11035.0, 10980.0, 10955.0, 10950.0, 10946.0, 10971.0, 10992.0, 10986.0, 10963.0, 10947.0, 10965.0, 10995.0, 10957.0, 10947.0, 10913.0, 10886.0, 10941.0, 11033.0, 11082.0, 11066.0, 11016.0, 10984.0, 10970.0, 10968.0, 10970.0, 10964.0, 10972.0, 10984.0, 10982.0, 10971.0, 10942.0, 10921.0, 10939.0, 10975.0, 10995.0, 10996.0, 11002.0, 10999.0, 11000.0, 10981.0, 10948.0, 10943.0, 10979.0, 11029.0, 11025.0, 11008.0, 10989.0, 10967.0, 10956.0, 10968.0, 10983.0, 11000.0, 11022.0, 11007.0, 10967.0, 10939.0, 10929.0, 10953.0, 10982.0, 10982.0, 10974.0, 10970.0, 10962.0, 10952.0, 10958.0, 10984.0, 11003.0, 11012.0, 10999.0, 11002.0, 11006.0, 11017.0, 11026.0, 11024.0, 11003.0, 11007.0, 10992.0, 10964.0, 10955.0, 10951.0, 10968.0, 11010.0, 11028.0, 11042.0, 11022.0, 11020.0, 10989.0, 11010.0, 11029.0, 11042.0, 11048.0, 11026.0, 10997.0, 10995.0, 10964.0, 10939.0, 10955.0, 10989.0, 11034.0, 11040.0, 11028.0, 11005.0, 10986.0, 10967.0, 10958.0, 10948.0, 10941.0, 10947.0, 10942.0, 10948.0, 10955.0, 10958.0, 10966.0, 10982.0, 10981.0, 10976.0, 10999.0, 11010.0, 11011.0, 11017.0, 11009.0, 11014.0, 11003.0, 11003.0, 10997.0, 10971.0, 10985.0, 10980.0, 10980.0, 10974.0, 10970.0, 10979.0, 10999.0, 10997.0, 11002.0, 10985.0, 10987.0, 10971.0, 10974.0, 10996.0, 10993.0, 11005.0, 11014.0, 11018.0, 10996.0, 10989.0, 10956.0, 10964.0, 11037.0, 11057.0, 11054.0, 11016.0, 10990.0, 10976.0, 10919.0, 10903.0, 10948.0, 10976.0, 10997.0, 11001.0, 10997.0, 10957.0, 10928.0, 10922.0, 10973.0, 11027.0, 11049.0, 11033.0, 11024.0, 10979.0, 10952.0, 10923.0, 10912.0, 10961.0, 11019.0, 11014.0, 10979.0, 10973.0, 11009.0, 11031.0, 11041.0, 11011.0, 10983.0, 10966.0, 10952.0, 10952.0, 10992.0, 11020.0, 11023.0, 11001.0, 10990.0, 10988.0, 11009.0],
      "WindowWidth": [23858.0, 23617.0, 23407.0, 23292.0, 23281.0, 23287.0, 23365.0, 23397.0, 23371.0, 23337.0, 23378.0, 23474.0, 23672.0, 23719.0, 23668.0, 23551.0, 23482.0, 23470.0, 23458.0, 23521.0, 23564.0, 23553.0, 23495.0, 23456.0, 23495.0, 23569.0, 23490.0, 23463.0, 23382.0, 23323.0, 23439.0, 23659.0, 23772.0, 23733.0, 23622.0, 23548.0, 23512.0, 23508.0, 23515.0, 23502.0, 23512.0, 23540.0, 23540.0, 23516.0, 23452.0, 23402.0, 23444.0, 23524.0, 23567.0, 23568.0, 23576.0, 23572.0, 23576.0, 23539.0, 23463.0, 23450.0, 23529.0, 23642.0, 23635.0, 23595.0, 23549.0, 23500.0, 23474.0, 23501.0, 23540.0, 23577.0, 23627.0, 23594.0, 23507.0, 23437.0, 23413.0, 23466.0, 23532.0, 23532.0, 23527.0, 23502.0, 23484.0, 23465.0, 23481.0, 23539.0, 23588.0, 23609.0, 23579.0, 23594.0, 23591.0, 23617.0, 23637.0, 23632.0, 23582.0, 23589.0, 23557.0, 23495.0, 23471.0, 23463.0, 23504.0, 23598.0, 23645.0, 23678.0, 23626.0, 23622.0, 23553.0, 23601.0, 23650.0, 23677.0, 23699.0, 23638.0, 23566.0, 23564.0, 23499.0, 23439.0, 23482.0, 23550.0, 23669.0, 23674.0, 23635.0, 23591.0, 23545.0, 23498.0, 23478.0, 23454.0, 23438.0, 23448.0, 23438.0, 23450.0, 23466.0, 23476.0, 23496.0, 23545.0, 23535.0, 23522.0, 23570.0, 23595.0, 23601.0, 23609.0, 23590.0, 23594.0, 23572.0, 23576.0, 23557.0, 23504.0, 23532.0, 23525.0, 23529.0, 23514.0, 23501.0, 23523.0, 23568.0, 23567.0, 23575.0, 23539.0, 23543.0, 23504.0, 23506.0, 23562.0, 23560.0, 23581.0, 23599.0, 23618.0, 23572.0, 23551.0, 23479.0, 23490.0, 23648.0, 23699.0, 23686.0, 23597.0, 23542.0, 23506.0, 23384.0, 23344.0, 23442.0, 23517.0, 23566.0, 23575.0, 23568.0, 23477.0, 23408.0, 23391.0, 23502.0, 23627.0, 23681.0, 23646.0, 23619.0, 23531.0, 23464.0, 23401.0, 23373.0, 23482.0, 23622.0, 23604.0, 23524.0, 23504.0, 23585.0, 23651.0, 23669.0, 23603.0, 23537.0, 23492.0, 23457.0, 23455.0, 23539.0, 23607.0, 23610.0, 23564.0, 23536.0, 23536.0, 23592.0]
    },
    "slices": {}
  }
}