{
  "AcquisitionMatrixPE": 104,
  "AcquisitionNumber": 1,
  "AcquisitionTime": "16:01:40.042500",
  "BandwidthPerPixelPhaseEncode": 17.17,
  "BaseResolution": 104,
  "BodyPartExamined": "BRAIN",
  "CoilCombinationMethod": "Sum of Squares",
  "ConsistencyInfo": "N4_VE11C_LATEST_20160120",
  "ConversionSoftware": "dcm2niix",
  "ConversionSoftwareVersion": "v1.0.20211006",
  "DerivedVendorReportedEchoSpacing": 0.000560011,
  "DeviceSerialNumber": "167006",
  "DwellTime": 2.1e-06,
  "EchoTime": 0.037,
  "EchoTime1": 0.037,
  "EchoTime2": 0.001,
  "EchoTrainLength": 104,
  "EffectiveEchoSpacing": 0.000560011,
  "FlipAngle": 52,
  "HeudiconvVersion": "0.10.0",
  "ImageComments": "Unaliased MB4/PE3/LB",
  "ImageOrientationPatientDICOM": [0.998489, -0.0422831, 0.0351102, 0.0514549, 0.943676, -0.326846],
  "ImageOrientationText": "Tra>Cor(-19.2)>Sag(1.1)",
  "ImageType": [
    "ORIGINAL",
    "PRIMARY",
    "P",
    "MB",
    "ND",
    "MOSAIC",
    "PHASE"
],
  "ImagingFrequency": 123.259,
  "InPlanePhaseEncodingDirectionDICOM": "COL",
  "InstitutionAddress": "Chemin Queen-Mary 4565,Montreal,District,CA,H3W 1W5",
  "InstitutionName": "IUGM",
  "InstitutionalDepartmentName": "Department",
  "MRAcquisitionType": "2D",
  "MagneticFieldStrength": 3,
  "Manufacturer": "Siemens",
  "ManufacturersModelName": "Prisma_fit",
  "MatrixCoilMode": "SENSE",
  "Modality": "MR",
  "MultibandAccelerationFactor": 4,
  "PartialFourier": 1,
  "PatientPosition": "HFS",
  "PercentPhaseFOV": 100,
  "PercentSampling": 100,
  "PhaseEncodingDirection": "j",
  "PhaseEncodingSteps": 104,
  "PhaseResolution": 1,
  "PixelBandwidth": 2290,
  "ProcedureStepDescription": "games^gamepad",
  "ProtocolName": "func_task-gamepad_run-2",
  "PulseSequenceDetails": "%CustomerSeq%\\cmrr_mbep2d_bold",
  "ReceiveCoilActiveElements": "HC1-7;NC1,2",
  "ReceiveCoilName": "HeadNeck_64",
  "ReconMatrixPE": 104,
  "RepetitionTime": 1.49,
  "SAR": 0.0336054,
  "ScanOptions": "FS",
  "ScanningSequence": "EP",
  "SequenceName": "epfid2d1_104",
  "SequenceVariant": "SK\\SS",
  "SeriesDescription": "func_task-gamepad_run-2",
  "SeriesNumber": 14,
  "ShimSetting": [628, -7234, -8841, 579, -15, -172, -90, -29],
  "SliceThickness": 2,
  "SliceTiming": [0, 0.7825, 0.0975, 0.88, 0.195, 0.98, 0.2925, 1.0775, 0.39, 1.175, 0.49, 1.2725, 0.5875, 1.37, 0.685, 0, 0.7825, 0.0975, 0.88, 0.195, 0.98, 0.2925, 1.0775, 0.39, 1.175, 0.49, 1.2725, 0.5875, 1.37, 0.685, 0, 0.7825, 0.0975, 0.88, 0.195, 0.98, 0.2925, 1.0775, 0.39, 1.175, 0.49, 1.2725, 0.5875, 1.37, 0.685, 0, 0.7825, 0.0975, 0.88, 0.195, 0.98, 0.2925, 1.0775, 0.39, 1.175, 0.49, 1.2725, 0.5875, 1.37, 0.685],
  "SoftwareVersions": "syngo MR E11",
  "SpacingBetweenSlices": 2,
  "StationName": "MRC35049",
  "TaskName": "gamepad",
  "TotalReadoutTime": 0.0576811,
  "TxRefAmp": 230.026,
  "WipMemBlock": "93fa9bb2-c036-4458-a523-0f37e47869c7||Sequence: R016 ve11c/master r/e634e98; Dec 19 2017 11:00:25 by eja",
  "dcmmeta_affine": [
    [-1.9969770908355713, 0.10290981084108353, 0.038625285029411316, 101.41279602050781],
    [0.08456612378358841, 1.8873518705368042, -0.6563165783882141, -68.2492446899414],
    [0.0702204629778862, 0.6536914110183716, 1.8888506889343262, -70.87914276123047],
    [0.0, 0.0, 0.0, 1.0]
],
  "dcmmeta_reorient_transform": [
    [0.0, -1.0, 0.0, 103.0],
    [1.0, 0.0, 0.0, 0.0],
    [0.0, 0.0, 1.0, 0.0],
    [0.0, 0.0, 0.0, 1.0]
],
  "dcmmeta_shape": [104, 104, 60, 157],
  "dcmmeta_slice_dim": 2,
  "dcmmeta_version": 0.6,
  "global": {
    "const": {
      "AcquisitionMatrix": [104, 0, 0, 104],
      "AngioFlag": "N",
      "BitsAllocated": 16,
      "BitsStored": 16,
      "BodyPartExamined": "BRAIN",
      "Columns": 832,
      "EchoNumbers": 1,
      "EchoTime": 37.0,
      "EchoTrainLength": 104,
      "FlipAngle": 52.0,
      "HighBit": 15,
      "ImageOrientationPatient": [0.99848856501694, -0.0422830608464, 0.03511023064389, 0.05145490602241, 0.94367593821984, -0.3268457071328],
      "ImagePositionPatient": [-876.37135207527, -782.36201118176, 208.83450069779],
      "ImageType": [
        "ORIGINAL",
        "PRIMARY",
        "P",
        "MB",
        "ND",
        "MOSAIC"
],
      "ImagedNucleus": "1H",
      "ImagingFrequency": 123.258901,
      "InPlanePhaseEncodingDirection": "COL",
      "LargestImagePixelValue": 4095,
      "MRAcquisitionType": "2D",
      "MagneticFieldStrength": 3.0,
      "Manufacturer": "SIEMENS",
      "ManufacturerModelName": "Prisma_fit",
      "Modality": "MR",
      "NumberOfAverages": 1.0,
      "NumberOfPhaseEncodingSteps": 104,
      "PercentPhaseFieldOfView": 100.0,
      "PercentSampling": 100.0,
      "PerformedProcedureStepStartTime": "155006.181000",
      "PhotometricInterpretation": "MONOCHROME2",
      "PixelBandwidth": 2290.0,
      "PixelRepresentation": 0,
      "PixelSpacing": [2.0, 2.0],
      "ProtocolName": "func_task-gamepad_run-2",
      "RepetitionTime": 1490.0,
      "RescaleIntercept": -4096.0,
      "RescaleSlope": 2.0,
      "RescaleType": "US",
      "Rows": 832,
      "SAR": 0.03360544573904,
      "SamplesPerPixel": 1,
      "ScanOptions": "FS",
      "ScanningSequence": "EP",
      "SequenceName": "epfid2d1_104",
      "SequenceVariant": [
        "SK",
        "SS"
],
      "SeriesDescription": "func_task-gamepad_run-2",
      "SeriesNumber": 14,
      "SeriesTime": "160308.260000",
      "SliceLocation": -42.584949576444,
      "SliceThickness": 2.0,
      "SmallestImagePixelValue": 0,
      "SoftwareVersions": "syngo MR E11",
      "SpacingBetweenSlices": 2.0000000399006,
      "SpecificCharacterSet": "ISO_IR 100",
      "StudyID": "1",
      "StudyTime": "155006.094000",
      "TransmitCoilName": "Body",
      "VariableFlipAngleFlag": "N",
      "WindowCenterWidthExplanation": "Algo1",
      "dBdt": 0.0},
    "slices": {}
  },
  "time": {
    "samples": {
      "AcquisitionNumber": [1, 2, 3, 4, 5, 6, 7, 8, 9, 10, 11, 12, 13, 14, 15, 16, 17, 18, 19, 20, 21, 22, 23, 24, 25, 26, 27, 28, 29, 30, 31, 32, 33, 34, 35, 36, 37, 38, 39, 40, 41, 42, 43, 44, 45, 46, 47, 48, 49, 50, 51, 52, 53, 54, 55, 56, 57, 58, 59, 60, 61, 62, 63, 64, 65, 66, 67, 68, 69, 70, 71, 72, 73, 74, 75, 76, 77, 78, 79, 80, 81, 82, 83, 84, 85, 86, 87, 88, 89, 90, 91, 92, 93, 94, 95, 96, 97, 98, 99, 100, 101, 102, 103, 104, 105, 106, 107, 108, 109, 110, 111, 112, 113, 114, 115, 116, 117, 118, 119, 120, 121, 122, 123, 124, 125, 126, 127, 128, 129, 130, 131, 132, 133, 134, 135, 136, 137, 138, 139, 140, 141, 142, 143, 144, 145, 146, 147, 148, 149, 150, 151, 152, 153, 154, 155, 156, 157],
      "AcquisitionTime": ["160140.042500", "160141.532500", "160143.022500", "160144.512500", "160146.002500", "160147.492500", "160148.982500", "160150.472500", "160151.962500", "160153.452500", "160154.942500", "160156.432500", "160157.922500", "160159.412500", "160200.902500", "160202.392500", "160203.882500", "160205.372500", "160206.862500", "160208.352500", "160209.842500", "160211.332500", "160212.822500", "160214.312500", "160215.802500", "160217.292500", "160218.782500", "160220.272500", "160221.762500", "160223.252500", "160224.742500", "160226.232500", "160227.722500", "160229.212500", "160230.702500", "160232.192500", "160233.682500", "160235.172500", "160236.662500", "160238.152500", "160239.642500", "160241.132500", "160242.622500", "160244.112500", "160245.602500", "160247.092500", "160248.582500", "160250.072500", "160251.562500", "160253.052500", "160254.542500", "160256.032500", "160257.522500", "160259.012500", "160300.502500", "160301.992500", "160303.482500", "160304.972500", "160306.462500", "160307.952500", "160309.442500", "160310.932500", "160312.422500", "160313.912500", "160315.402500", "160316.892500", "160318.382500", "160319.872500", "160321.362500", "160322.852500", "160324.342500", "160325.832500", "160327.322500", "160328.812500", "160330.302500", "160331.792500", "160333.282500", "160334.772500", "160336.262500", "160337.752500", "160339.242500", "160340.732500", "160342.222500", "160343.712500", "160345.202500", "160346.692500", "160348.182500", "160349.672500", "160351.162500", "160352.652500", "160354.142500", "160355.632500", "160357.122500", "160358.612500", "160400.102500", "160401.592500", "160403.082500", "160404.572500", "160406.062500", "160407.552500", "160409.042500", "160410.532500", "160412.022500", "160413.512500", "160415.002500", "160416.492500", "160417.982500", "160419.472500", "160420.962500", "160422.452500", "160423.942500", "160425.432500", "160426.922500", "160428.412500", "160429.902500", "160431.392500", "160432.882500", "160434.372500", "160435.862500", "160437.352500", "160438.842500", "160440.332500", "160441.822500", "160443.312500", "160444.802500", "160446.292500", "160447.782500", "160449.272500", "160450.762500", "160452.252500", "160453.742500", "160455.232500", "160456.722500", "160458.212500", "160459.702500", "160501.192500", "160502.682500", "160504.172500", "160505.662500", "160507.152500", "160508.642500", "160510.132500", "160511.622500", "160513.112500", "160514.602500", "160516.092500", "160517.582500", "160519.072500", "160520.562500", "160522.052500", "160523.542500", "160525.032500", "160526.522500", "160528.012500", "160529.502500", "160530.992500", "160532.482500"],
      "ContentTime": ["160308.262000", "160308.265000", "160308.267000", "160308.270000", "160308.273000", "160308.275000", "160308.277000", "160308.280000", "160308.282000", "160308.288000", "160308.291000", "160308.293000", "160308.296000", "160308.298000", "160308.301000", "160308.303000", "160308.306000", "160308.308000", "160308.310000", "160308.313000", "160308.315000", "160308.318000", "160308.320000", "160308.323000", "160308.325000", "160308.328000", "160308.331000", "160308.333000", "160308.336000", "160308.338000", "160308.340000", "160308.343000", "160308.345000", "160308.348000", "160308.350000", "160308.353000", "160328.156000", "160328.159000", "160328.162000", "160328.164000", "160328.167000", "160328.169000", "160328.172000", "160328.174000", "160328.177000", "160328.183000", "160328.186000", "160328.188000", "160328.191000", "160328.193000", "160328.196000", "160328.198000", "160328.201000", "160328.203000", "160328.205000", "160328.208000", "160348.178000", "160348.181000", "160348.183000", "160348.186000", "160348.188000", "160348.191000", "160348.193000", "160348.196000", "160348.198000", "160348.201000", "160348.203000", "160348.207000", "160348.210000", "160348.212000", "160348.215000", "160348.217000", "160348.219000", "160348.222000", "160348.224000", "160348.227000", "160408.172000", "160408.174000", "160408.177000", "160408.179000", "160408.182000", "160408.184000", "160408.187000", "160408.189000", "160408.192000", "160408.194000", "160408.197000", "160408.199000", "160408.202000", "160408.204000", "160408.207000", "160408.209000", "160408.212000", "160408.214000", "160408.217000", "160408.219000", "160408.222000", "160448.191000", "160448.194000", "160448.196000", "160448.199000", "160448.201000", "160448.204000", "160448.206000", "160448.208000", "160448.211000", "160448.213000", "160448.216000", "160448.218000", "160448.221000", "160448.223000", "160448.226000", "160448.228000", "160448.231000", "160448.233000", "160448.236000", "160448.238000", "160448.241000", "160448.243000", "160448.246000", "160448.248000", "160448.251000", "160448.253000", "160448.256000", "160448.258000", "160448.261000", "160528.177000", "160528.180000", "160528.182000", "160528.185000", "160528.187000", "160528.190000", "160528.192000", "160528.195000", "160528.197000", "160528.200000", "160528.202000", "160528.205000", "160528.207000", "160528.210000", "160528.212000", "160528.215000", "160528.217000", "160528.220000", "160528.222000", "160528.225000", "160528.227000", "160528.230000", "160528.232000", "160528.235000", "160528.237000", "160528.240000", "160535.609000", "160535.612000", "160535.614000", "160535.617000", "160535.619000"],
      "InstanceCreationTime": ["160308.262000", "160308.265000", "160308.267000", "160308.270000", "160308.273000", "160308.275000", "160308.277000", "160308.280000", "160308.282000", "160308.288000", "160308.291000", "160308.293000", "160308.296000", "160308.298000", "160308.301000", "160308.303000", "160308.306000", "160308.308000", "160308.310000", "160308.313000", "160308.315000", "160308.318000", "160308.320000", "160308.323000", "160308.325000", "160308.328000", "160308.331000", "160308.333000", "160308.336000", "160308.338000", "160308.340000", "160308.343000", "160308.345000", "160308.348000", "160308.350000", "160308.353000", "160328.156000", "160328.159000", "160328.162000", "160328.164000", "160328.167000", "160328.169000", "160328.172000", "160328.174000", "160328.177000", "160328.183000", "160328.186000", "160328.188000", "160328.191000", "160328.193000", "160328.196000", "160328.198000", "160328.201000", "160328.203000", "160328.205000", "160328.208000", "160348.178000", "160348.181000", "160348.183000", "160348.186000", "160348.188000", "160348.191000", "160348.193000", "160348.196000", "160348.198000", "160348.201000", "160348.203000", "160348.207000", "160348.210000", "160348.212000", "160348.215000", "160348.217000", "160348.219000", "160348.222000", "160348.224000", "160348.227000", "160408.172000", "160408.174000", "160408.177000", "160408.179000", "160408.182000", "160408.184000", "160408.187000", "160408.189000", "160408.192000", "160408.194000", "160408.197000", "160408.199000", "160408.202000", "160408.204000", "160408.207000", "160408.209000", "160408.212000", "160408.214000", "160408.217000", "160408.219000", "160408.222000", "160448.191000", "160448.194000", "160448.196000", "160448.199000", "160448.201000", "160448.204000", "160448.206000", "160448.208000", "160448.211000", "160448.213000", "160448.216000", "160448.218000", "160448.221000", "160448.223000", "160448.226000", "160448.228000", "160448.231000", "160448.233000", "160448.236000", "160448.238000", "160448.241000", "160448.243000", "160448.246000", "160448.248000", "160448.251000", "160448.253000", "160448.256000", "160448.258000", "160448.261000", "160528.177000", "160528.180000", "160528.182000", "160528.185000", "160528.187000", "160528.190000", "160528.192000", "160528.195000", "160528.197000", "160528.200000", "160528.202000", "160528.205000", "160528.207000", "160528.210000", "160528.212000", "160528.215000", "160528.217000", "160528.220000", "160528.222000", "160528.225000", "160528.227000", "160528.230000", "160528.232000", "160528.235000", "160528.237000", "160528.240000", "160535.609000", "160535.612000", "160535.614000", "160535.617000", "160535.619000"],
      "InstanceNumber": [1, 2, 3, 4, 5, 6, 7, 8, 9, 10, 11, 12, 13, 14, 15, 16, 17, 18, 19, 20, 21, 22, 23, 24, 25, 26, 27, 28, 29, 30, 31, 32, 33, 34, 35, 36, 37, 38, 39, 40, 41, 42, 43, 44, 45, 46, 47, 48, 49, 50, 51, 52, 53, 54, 55, 56, 57, 58, 59, 60, 61, 62, 63, 64, 65, 66, 67, 68, 69, 70, 71, 72, 73, 74, 75, 76, 77, 78, 79, 80, 81, 82, 83, 84, 85, 86, 87, 88, 89, 90, 91, 92, 93, 94, 95, 96, 97, 98, 99, 100, 101, 102, 103, 104, 105, 106, 107, 108, 109, 110, 111, 112, 113, 114, 115, 116, 117, 118, 119, 120, 121, 122, 123, 124, 125, 126, 127, 128, 129, 130, 131, 132, 133, 134, 135, 136, 137, 138, 139, 140, 141, 142, 143, 144, 145, 146, 147, 148, 149, 150, 151, 152, 153, 154, 155, 156, 157],
      "WindowCenter": [4884.0, 4882.0, 4882.0, 4830.0, 4830.0, 4828.0, 4832.0, 4862.0, 4886.0, 4886.0, 4886.0, 4888.0, 4864.0, 4858.0, 4858.0, 4884.0, 4884.0, 4834.0, 4806.0, 4806.0, 4806.0, 4834.0, 4864.0, 4888.0, 4890.0, 4890.0, 4888.0, 4886.0, 4884.0, 4860.0, 4832.0, 4834.0, 4828.0, 4828.0, 4838.0, 4888.0, 4894.0, 4888.0, 4886.0, 4910.0, 4860.0, 4834.0, 4832.0, 4836.0, 4860.0, 4836.0, 4864.0, 4888.0, 4888.0, 4888.0, 4886.0, 4886.0, 4864.0, 4836.0, 4860.0, 4888.0, 4888.0, 4858.0, 4858.0, 4856.0, 4866.0, 4888.0, 4886.0, 4886.0, 4886.0, 4864.0, 4862.0, 4862.0, 4862.0, 4866.0, 4890.0, 4890.0, 4886.0, 4858.0, 4858.0, 4860.0, 4862.0, 4888.0, 4862.0, 4888.0, 4864.0, 4890.0, 4860.0, 4886.0, 4862.0, 4886.0, 4862.0, 4886.0, 4862.0, 4864.0, 4864.0, 4892.0, 4864.0, 4888.0, 4888.0, 4886.0, 4860.0, 4864.0, 4864.0, 4862.0, 4886.0, 4886.0, 4900.0, 4878.0, 4904.0, 4886.0, 4854.0, 4826.0, 4858.0, 4876.0, 4878.0, 4908.0, 4888.0, 4888.0, 4888.0, 4864.0, 4888.0, 4888.0, 4860.0, 4910.0, 4862.0, 4838.0, 4834.0, 4860.0, 4886.0, 4882.0, 4834.0, 4878.0, 4834.0, 4830.0, 4806.0, 4804.0, 4834.0, 4864.0, 4884.0, 4882.0, 4886.0, 4882.0, 4886.0, 4886.0, 4832.0, 4888.0, 4832.0, 4836.0, 4860.0, 4858.0, 4882.0, 4886.0, 4886.0, 4884.0, 4884.0, 4884.0, 4860.0, 4862.0, 4860.0, 4860.0, 4858.0],
      "WindowWidth": [18656.0, 18682.0, 18662.0, 18578.0, 18578.0, 18576.0, 18580.0, 18614.0, 18652.0, 18652.0, 18652.0, 18648.0, 18620.0, 18606.0, 18610.0, 18676.0, 18674.0, 18574.0, 18548.0, 18544.0, 18542.0, 18574.0, 18614.0, 18648.0, 18654.0, 18646.0, 18658.0, 18646.0, 18664.0, 18624.0, 18578.0, 18584.0, 18572.0, 18570.0, 18574.0, 18646.0, 18652.0, 18660.0, 18660.0, 18690.0, 18610.0, 18574.0, 18572.0, 18574.0, 18612.0, 18578.0, 18616.0, 18644.0, 18648.0, 18646.0, 18662.0, 18644.0, 18616.0, 18576.0, 18608.0, 18652.0, 18652.0, 18610.0, 18606.0, 18602.0, 18610.0, 18646.0, 18644.0, 18648.0, 18656.0, 18610.0, 18606.0, 18608.0, 18616.0, 18620.0, 18662.0, 18654.0, 18650.0, 18606.0, 18604.0, 18606.0, 18608.0, 18644.0, 18610.0, 18650.0, 18606.0, 18652.0, 18606.0, 18644.0, 18604.0, 18648.0, 18606.0, 18642.0, 18610.0, 18614.0, 18612.0, 18646.0, 18612.0, 18656.0, 18646.0, 18650.0, 18602.0, 18612.0, 18616.0, 18600.0, 18650.0, 18644.0, 18706.0, 18682.0, 18710.0, 18670.0, 18626.0, 18586.0, 18624.0, 18670.0, 18668.0, 18700.0, 18662.0, 18650.0, 18660.0, 18622.0, 18670.0, 18668.0, 18612.0, 18698.0, 18624.0, 18578.0, 18580.0, 18610.0, 18650.0, 18660.0, 18630.0, 18672.0, 18582.0, 18578.0, 18548.0, 18548.0, 18580.0, 18620.0, 18660.0, 18660.0, 18674.0, 18674.0, 18666.0, 18650.0, 18574.0, 18662.0, 18580.0, 18584.0, 18618.0, 18610.0, 18654.0, 18656.0, 18656.0, 18650.0, 18654.0, 18648.0, 18614.0, 18614.0, 18608.0, 18616.0, 18618.0]
    },
    "slices": {}
  }
}