{
  "AcquisitionMatrixPE": 104,
  "AcquisitionNumber": 1,
  "AcquisitionTime": "15:54:55.787500",
  "BandwidthPerPixelPhaseEncode": 17.17,
  "BaseResolution": 104,
  "BodyPartExamined": "BRAIN",
  "CoilCombinationMethod": "Sum of Squares",
  "ConsistencyInfo": "N4_VE11C_LATEST_20160120",
  "ConversionSoftware": "dcm2niix",
  "ConversionSoftwareVersion": "v1.0.20211006",
  "DerivedVendorReportedEchoSpacing": 0.000560011,
  "DeviceSerialNumber": "167006",
  "DwellTime": 2.1e-06,
  "EchoTime": 0.037,
  "EchoTrainLength": 104,
  "EffectiveEchoSpacing": 0.000560011,
  "FlipAngle": 52,
  "HeudiconvVersion": "0.10.0",
  "ImageComments": "Unaliased MB4/PE3/LB",
  "ImageOrientationPatientDICOM": [0.998489, -0.0422831, 0.0351102, 0.0514549, 0.943676, -0.326846],
  "ImageOrientationText": "Tra>Cor(-19.2)>Sag(1.1)",
  "ImageType": [
    "ORIGINAL",
    "PRIMARY",
    "M",
    "MB",
    "ND",
    "MOSAIC"
],
  "ImagingFrequency": 123.259,
  "InPlanePhaseEncodingDirectionDICOM": "COL",
  "InstitutionAddress": "Chemin Queen-Mary 4565,Montreal,District,CA,H3W 1W5",
  "InstitutionName": "IUGM",
  "InstitutionalDepartmentName": "Department",
  "MRAcquisitionType": "2D",
  "MagneticFieldStrength": 3,
  "Manufacturer": "Siemens",
  "ManufacturersModelName": "Prisma_fit",
  "MatrixCoilMode": "SENSE",
  "Modality": "MR",
  "MultibandAccelerationFactor": 4,
  "PartialFourier": 1,
  "PatientPosition": "HFS",
  "PercentPhaseFOV": 100,
  "PercentSampling": 100,
  "PhaseEncodingDirection": "j",
  "PhaseEncodingSteps": 104,
  "PhaseResolution": 1,
  "PixelBandwidth": 2290,
  "ProcedureStepDescription": "games^gamepad",
  "ProtocolName": "func_task-gamepad_run-1",
  "PulseSequenceDetails": "%CustomerSeq%\\cmrr_mbep2d_bold",
  "ReceiveCoilActiveElements": "HC1-7;NC1,2",
  "ReceiveCoilName": "HeadNeck_64",
  "ReconMatrixPE": 104,
  "RepetitionTime": 1.49,
  "SAR": 0.0336054,
  "ScanOptions": "FS",
  "ScanningSequence": "EP",
  "SequenceName": "epfid2d1_104",
  "SequenceVariant": "SK\\SS",
  "SeriesDescription": "func_task-gamepad_run-1",
  "SeriesNumber": 10,
  "ShimSetting": [628, -7234, -8841, 579, -15, -172, -90, -29],
  "SliceThickness": 2,
  "SliceTiming": [0, 0.7825, 0.0975, 0.8825, 0.195, 0.98, 0.2925, 1.0775, 0.3925, 1.175, 0.49, 1.2725, 0.5875, 1.3725, 0.685, 0, 0.7825, 0.0975, 0.8825, 0.195, 0.98, 0.2925, 1.0775, 0.3925, 1.175, 0.49, 1.2725, 0.5875, 1.3725, 0.685, 0, 0.7825, 0.0975, 0.8825, 0.195, 0.98, 0.2925, 1.0775, 0.3925, 1.175, 0.49, 1.2725, 0.5875, 1.3725, 0.685, 0, 0.7825, 0.0975, 0.8825, 0.195, 0.98, 0.2925, 1.0775, 0.3925, 1.175, 0.49, 1.2725, 0.5875, 1.3725, 0.685],
  "SoftwareVersions": "syngo MR E11",
  "SpacingBetweenSlices": 2,
  "StationName": "MRC35049",
  "TaskName": "gamepad",
  "TotalReadoutTime": 0.0576811,
  "TxRefAmp": 230.026,
  "WipMemBlock": "21cbbcd5-2575-410e-99e1-f23469f4a75f||Sequence: R016 ve11c/master r/e634e98; Dec 19 2017 11:00:25 by eja",
  "dcmmeta_affine": [
    [-1.9969770908355713, 0.10290981084108353, 0.038625285029411316, 101.41279602050781],
    [0.08456612378358841, 1.8873518705368042, -0.6563165783882141, -68.2492446899414],
    [0.0702204629778862, 0.6536914110183716, 1.8888506889343262, -70.87914276123047],
    [0.0, 0.0, 0.0, 1.0]
],
  "dcmmeta_reorient_transform": [
    [0.0, -1.0, 0.0, 103.0],
    [1.0, 0.0, 0.0, 0.0],
    [0.0, 0.0, 1.0, 0.0],
    [0.0, 0.0, 0.0, 1.0]
],
  "dcmmeta_shape": [104, 104, 60, 207],
  "dcmmeta_slice_dim": 2,
  "dcmmeta_version": 0.6,
  "global": {
    "const": {
      "AcquisitionMatrix": [104, 0, 0, 104],
      "AngioFlag": "N",
      "BitsAllocated": 16,
      "BitsStored": 16,
      "BodyPartExamined": "BRAIN",
      "Columns": 832,
      "EchoNumbers": 1,
      "EchoTime": 37.0,
      "EchoTrainLength": 104,
      "FlipAngle": 52.0,
      "HighBit": 15,
      "ImageOrientationPatient": [0.99848856501694, -0.0422830608464, 0.03511023064389, 0.05145490602241, 0.94367593821984, -0.3268457071328],
      "ImagePositionPatient": [-876.37135207527, -782.36201118176, 208.83450069779],
      "ImageType": [
        "ORIGINAL",
        "PRIMARY",
        "M",
        "MB",
        "ND",
        "MOSAIC"
],
      "ImagedNucleus": "1H",
      "ImagingFrequency": 123.258897,
      "InPlanePhaseEncodingDirection": "COL",
      "MRAcquisitionType": "2D",
      "MagneticFieldStrength": 3.0,
      "Manufacturer": "SIEMENS",
      "ManufacturerModelName": "Prisma_fit",
      "Modality": "MR",
      "NumberOfAverages": 1.0,
      "NumberOfPhaseEncodingSteps": 104,
      "PercentPhaseFieldOfView": 100.0,
      "PercentSampling": 100.0,
      "PerformedProcedureStepStartTime": "155006.181000",
      "PhotometricInterpretation": "MONOCHROME2",
      "PixelBandwidth": 2290.0,
      "PixelRepresentation": 0,
      "PixelSpacing": [2.0, 2.0],
      "ProtocolName": "func_task-gamepad_run-1",
      "RepetitionTime": 1490.0,
      "Rows": 832,
      "SAR": 0.03360544573904,
      "SamplesPerPixel": 1,
      "ScanOptions": "FS",
      "ScanningSequence": "EP",
      "SequenceName": "epfid2d1_104",
      "SequenceVariant": [
        "SK",
        "SS"
],
      "SeriesDescription": "func_task-gamepad_run-1",
      "SeriesNumber": 10,
      "SeriesTime": "155557.577000",
      "SliceLocation": -42.584949576444,
      "SliceThickness": 2.0,
      "SmallestImagePixelValue": 0,
      "SoftwareVersions": "syngo MR E11",
      "SpacingBetweenSlices": 2.0000000399006,
      "SpecificCharacterSet": "ISO_IR 100",
      "StudyID": "1",
      "StudyTime": "155006.094000",
      "TransmitCoilName": "Body",
      "VariableFlipAngleFlag": "N",
      "WindowCenterWidthExplanation": "Algo1",
      "dBdt": 0.0},
    "slices": {}
  },
  "time": {
    "samples": {
      "AcquisitionNumber": [1, 2, 3, 4, 5, 6, 7, 8, 9, 10, 11, 12, 13, 14, 15, 16, 17, 18, 19, 20, 21, 22, 23, 24, 25, 26, 27, 28, 29, 30, 31, 32, 33, 34, 35, 36, 37, 38, 39, 40, 41, 42, 43, 44, 45, 46, 47, 48, 49, 50, 51, 52, 53, 54, 55, 56, 57, 58, 59, 60, 61, 62, 63, 64, 65, 66, 67, 68, 69, 70, 71, 72, 73, 74, 75, 76, 77, 78, 79, 80, 81, 82, 83, 84, 85, 86, 87, 88, 89, 90, 91, 92, 93, 94, 95, 96, 97, 98, 99, 100, 101, 102, 103, 104, 105, 106, 107, 108, 109, 110, 111, 112, 113, 114, 115, 116, 117, 118, 119, 120, 121, 122, 123, 124, 125, 126, 127, 128, 129, 130, 131, 132, 133, 134, 135, 136, 137, 138, 139, 140, 141, 142, 143, 144, 145, 146, 147, 148, 149, 150, 151, 152, 153, 154, 155, 156, 157, 158, 159, 160, 161, 162, 163, 164, 165, 166, 167, 168, 169, 170, 171, 172, 173, 174, 175, 176, 177, 178, 179, 180, 181, 182, 183, 184, 185, 186, 187, 188, 189, 190, 191, 192, 193, 194, 195, 196, 197, 198, 199, 200, 201, 202, 203, 204, 205, 206, 207],
      "AcquisitionTime": ["155455.787500", "155457.277500", "155458.767500", "155500.257500", "155501.747500", "155503.237500", "155504.727500", "155506.217500", "155507.707500", "155509.197500", "155510.687500", "155512.177500", "155513.667500", "155515.157500", "155516.647500", "155518.137500", "155519.627500", "155521.117500", "155522.607500", "155524.097500", "155525.587500", "155527.077500", "155528.567500", "155530.057500", "155531.547500", "155533.037500", "155534.527500", "155536.017500", "155537.507500", "155538.997500", "155540.487500", "155541.977500", "155543.467500", "155544.957500", "155546.447500", "155547.937500", "155549.427500", "155550.917500", "155552.407500", "155553.897500", "155555.387500", "155556.877500", "155558.367500", "155559.857500", "155601.347500", "155602.837500", "155604.327500", "155605.817500", "155607.307500", "155608.797500", "155610.287500", "155611.777500", "155613.267500", "155614.757500", "155616.247500", "155617.737500", "155619.227500", "155620.717500", "155622.207500", "155623.697500", "155625.187500", "155626.677500", "155628.167500", "155629.657500", "155631.147500", "155632.637500", "155634.127500", "155635.617500", "155637.107500", "155638.597500", "155640.087500", "155641.577500", "155643.067500", "155644.557500", "155646.047500", "155647.537500", "155649.027500", "155650.517500", "155652.007500", "155653.497500", "155654.987500", "155656.477500", "155657.967500", "155659.457500", "155700.947500", "155702.437500", "155703.927500", "155705.417500", "155706.907500", "155708.397500", "155709.887500", "155711.377500", "155712.867500", "155714.357500", "155715.847500", "155717.337500", "155718.827500", "155720.317500", "155721.807500", "155723.297500", "155724.787500", "155726.277500", "155727.767500", "155729.257500", "155730.747500", "155732.237500", "155733.727500", "155735.217500", "155736.707500", "155738.197500", "155739.687500", "155741.177500", "155742.667500", "155744.157500", "155745.647500", "155747.137500", "155748.627500", "155750.117500", "155751.607500", "155753.097500", "155754.587500", "155756.077500", "155757.567500", "155759.057500", "155800.547500", "155802.037500", "155803.527500", "155805.017500", "155806.507500", "155807.997500", "155809.487500", "155810.977500", "155812.467500", "155813.957500", "155815.447500", "155816.937500", "155818.427500", "155819.917500", "155821.407500", "155822.897500", "155824.387500", "155825.877500", "155827.367500", "155828.857500", "155830.347500", "155831.837500", "155833.327500", "155834.817500", "155836.307500", "155837.797500", "155839.287500", "155840.777500", "155842.267500", "155843.757500", "155845.247500", "155846.737500", "155848.227500", "155849.717500", "155851.207500", "155852.697500", "155854.187500", "155855.677500", "155857.167500", "155858.657500", "155900.147500", "155901.637500", "155903.127500", "155904.617500", "155906.107500", "155907.597500", "155909.087500", "155910.577500", "155912.067500", "155913.557500", "155915.047500", "155916.537500", "155918.027500", "155919.517500", "155921.007500", "155922.497500", "155923.987500", "155925.477500", "155926.967500", "155928.457500", "155929.947500", "155931.437500", "155932.927500", "155934.417500", "155935.907500", "155937.397500", "155938.887500", "155940.377500", "155941.867500", "155943.357500", "155944.847500", "155946.337500", "155947.827500", "155949.317500", "155950.807500", "155952.297500", "155953.787500", "155955.277500", "155956.767500", "155958.257500", "155959.747500", "160001.237500", "160002.727500"],
      "ContentTime": ["155557.580000", "155557.583000", "155557.587000", "155557.595000", "155557.598000", "155617.565000", "155617.569000", "155617.572000", "155617.576000", "155617.579000", "155617.582000", "155617.591000", "155617.594000", "155617.598000", "155617.601000", "155617.605000", "155617.608000", "155617.611000", "155617.614000", "155617.618000", "155617.621000", "155617.624000", "155617.628000", "155617.631000", "155617.634000", "155617.638000", "155637.546000", "155637.550000", "155637.553000", "155637.561000", "155637.565000", "155637.568000", "155637.571000", "155637.575000", "155637.578000", "155637.581000", "155637.584000", "155637.588000", "155637.591000", "155637.594000", "155637.598000", "155637.601000", "155637.604000", "155637.607000", "155637.611000", "155637.614000", "155657.546000", "155657.550000", "155657.553000", "155657.556000", "155657.560000", "155657.563000", "155657.566000", "155657.570000", "155657.573000", "155657.576000", "155657.580000", "155657.583000", "155657.586000", "155657.590000", "155657.593000", "155657.596000", "155657.600000", "155657.603000", "155657.606000", "155657.609000", "155717.546000", "155717.550000", "155717.553000", "155717.556000", "155717.560000", "155717.563000", "155717.566000", "155717.570000", "155717.573000", "155717.576000", "155717.579000", "155717.583000", "155717.586000", "155717.590000", "155717.593000", "155717.596000", "155717.600000", "155717.603000", "155717.606000", "155717.610000", "155737.547000", "155737.551000", "155737.554000", "155737.557000", "155737.561000", "155737.564000", "155737.567000", "155737.571000", "155737.574000", "155737.577000", "155737.581000", "155737.584000", "155737.587000", "155737.591000", "155737.594000", "155737.597000", "155737.601000", "155737.604000", "155737.607000", "155737.611000", "155737.614000", "155817.547000", "155817.551000", "155817.554000", "155817.558000", "155817.561000", "155817.564000", "155817.568000", "155817.571000", "155817.575000", "155817.578000", "155817.581000", "155817.585000", "155817.588000", "155817.591000", "155817.594000", "155817.598000", "155817.601000", "155817.604000", "155817.608000", "155817.611000", "155817.615000", "155817.618000", "155817.621000", "155817.625000", "155817.628000", "155817.631000", "155817.635000", "155857.546000", "155857.550000", "155857.553000", "155857.557000", "155857.560000", "155857.563000", "155857.567000", "155857.570000", "155857.573000", "155857.577000", "155857.580000", "155857.583000", "155857.587000", "155857.590000", "155857.594000", "155857.597000", "155857.601000", "155857.604000", "155857.608000", "155857.611000", "155857.614000", "155857.618000", "155857.621000", "155857.624000", "155857.627000", "155857.631000", "155857.634000", "155937.546000", "155937.550000", "155937.553000", "155937.557000", "155937.560000", "155937.563000", "155937.567000", "155937.570000", "155937.574000", "155937.577000", "155937.580000", "155937.583000", "155937.587000", "155937.590000", "155937.593000", "155937.597000", "155937.600000", "155937.603000", "155937.607000", "155937.610000", "155937.613000", "155937.617000", "155937.620000", "155937.623000", "155937.626000", "155937.630000", "155937.633000", "160005.298000", "160005.302000", "160005.305000", "160005.309000", "160005.312000", "160005.316000", "160005.319000", "160005.322000", "160005.326000", "160005.329000", "160005.332000", "160005.336000", "160005.352000", "160005.356000", "160005.359000", "160005.363000", "160005.366000", "160005.370000", "160005.374000"],
      "InstanceCreationTime": ["155557.580000", "155557.583000", "155557.587000", "155557.595000", "155557.598000", "155617.565000", "155617.569000", "155617.572000", "155617.576000", "155617.579000", "155617.582000", "155617.591000", "155617.594000", "155617.598000", "155617.601000", "155617.605000", "155617.608000", "155617.611000", "155617.614000", "155617.618000", "155617.621000", "155617.624000", "155617.628000", "155617.631000", "155617.634000", "155617.638000", "155637.546000", "155637.550000", "155637.553000", "155637.561000", "155637.565000", "155637.568000", "155637.571000", "155637.575000", "155637.578000", "155637.581000", "155637.584000", "155637.588000", "155637.591000", "155637.594000", "155637.598000", "155637.601000", "155637.604000", "155637.607000", "155637.611000", "155637.614000", "155657.546000", "155657.550000", "155657.553000", "155657.556000", "155657.560000", "155657.563000", "155657.566000", "155657.570000", "155657.573000", "155657.576000", "155657.580000", "155657.583000", "155657.586000", "155657.590000", "155657.593000", "155657.596000", "155657.600000", "155657.603000", "155657.606000", "155657.609000", "155717.546000", "155717.550000", "155717.553000", "155717.556000", "155717.560000", "155717.563000", "155717.566000", "155717.570000", "155717.573000", "155717.576000", "155717.579000", "155717.583000", "155717.586000", "155717.590000", "155717.593000", "155717.596000", "155717.600000", "155717.603000", "155717.606000", "155717.610000", "155737.547000", "155737.551000", "155737.554000", "155737.557000", "155737.561000", "155737.564000", "155737.567000", "155737.571000", "155737.574000", "155737.577000", "155737.581000", "155737.584000", "155737.587000", "155737.591000", "155737.594000", "155737.597000", "155737.601000", "155737.604000", "155737.607000", "155737.611000", "155737.614000", "155817.547000", "155817.551000", "155817.554000", "155817.558000", "155817.561000", "155817.564000", "155817.568000", "155817.571000", "155817.575000", "155817.578000", "155817.581000", "155817.585000", "155817.588000", "155817.591000", "155817.594000", "155817.598000", "155817.601000", "155817.604000", "155817.608000", "155817.611000", "155817.615000", "155817.618000", "155817.621000", "155817.625000", "155817.628000", "155817.631000", "155817.635000", "155857.546000", "155857.550000", "155857.553000", "155857.557000", "155857.560000", "155857.563000", "155857.567000", "155857.570000", "155857.573000", "155857.577000", "155857.580000", "155857.583000", "155857.587000", "155857.590000", "155857.594000", "155857.597000", "155857.601000", "155857.604000", "155857.608000", "155857.611000", "155857.614000", "155857.618000", "155857.621000", "155857.624000", "155857.627000", "155857.631000", "155857.634000", "155937.546000", "155937.550000", "155937.553000", "155937.557000", "155937.560000", "155937.563000", "155937.567000", "155937.570000", "155937.574000", "155937.577000", "155937.580000", "155937.583000", "155937.587000", "155937.590000", "155937.593000", "155937.597000", "155937.600000", "155937.603000", "155937.607000", "155937.610000", "155937.613000", "155937.617000", "155937.620000", "155937.623000", "155937.626000", "155937.630000", "155937.633000", "160005.298000", "160005.302000", "160005.305000", "160005.309000", "160005.312000", "160005.316000", "160005.319000", "160005.322000", "160005.326000", "160005.329000", "160005.332000", "160005.336000", "160005.352000", "160005.356000", "160005.359000", "160005.363000", "160005.366000", "160005.370000", "160005.374000"],
      "InstanceNumber": [1, 2, 3, 4, 5, 6, 7, 8, 9, 10, 11, 12, 13, 14, 15, 16, 17, 18, 19, 20, 21, 22, 23, 24, 25, 26, 27, 28, 29, 30, 31, 32, 33, 34, 35, 36, 37, 38, 39, 40, 41, 42, 43, 44, 45, 46, 47, 48, 49, 50, 51, 52, 53, 54, 55, 56, 57, 58, 59, 60, 61, 62, 63, 64, 65, 66, 67, 68, 69, 70, 71, 72, 73, 74, 75, 76, 77, 78, 79, 80, 81, 82, 83, 84, 85, 86, 87, 88, 89, 90, 91, 92, 93, 94, 95, 96, 97, 98, 99, 100, 101, 102, 103, 104, 105, 106, 107, 108, 109, 110, 111, 112, 113, 114, 115, 116, 117, 118, 119, 120, 121, 122, 123, 124, 125, 126, 127, 128, 129, 130, 131, 132, 133, 134, 135, 136, 137, 138, 139, 140, 141, 142, 143, 144, 145, 146, 147, 148, 149, 150, 151, 152, 153, 154, 155, 156, 157, 158, 159, 160, 161, 162, 163, 164, 165, 166, 167, 168, 169, 170, 171, 172, 173, 174, 175, 176, 177, 178, 179, 180, 181, 182, 183, 184, 185, 186, 187, 188, 189, 190, 191, 192, 193, 194, 195, 196, 197, 198, 199, 200, 201, 202, 203, 204, 205, 206, 207],
      "LargestImagePixelValue": [46783, 45147, 45303, 43957, 43622, 43454, 43531, 43331, 43660, 43902, 43496, 43873, 42954, 43626, 43396, 43093, 43376, 43180, 42575, 43789, 42791, 43800, 43134, 43226, 43726, 43010, 43823, 43407, 43632, 43236, 42990, 42636, 43374, 42709, 42294, 43292, 42313, 43003, 42722, 43653, 44066, 43312, 42947, 42684, 42585, 42514, 42402, 42433, 42486, 42557, 42566, 42309, 42525, 42374, 42670, 42868, 42698, 43692, 42996, 42687, 42343, 42902, 42413, 42655, 42649, 43082, 43182, 42731, 42627, 42767, 42498, 42493, 43505, 42318, 43179, 43908, 43676, 42623, 41921, 41601, 42060, 41363, 42185, 41652, 43147, 43296, 42237, 41580, 41704, 41513, 42680, 42074, 42511, 42377, 41807, 42132, 42864, 41696, 42150, 42496, 44191, 42272, 42189, 42085, 43129, 42408, 41986, 42294, 42393, 42826, 42290, 42056, 41937, 41386, 41840, 41682, 41541, 41910, 41629, 42413, 42192, 42434, 42825, 42688, 42787, 42919, 42237, 42250, 43139, 42623, 43181, 42762, 43193, 42580, 42531, 42107, 41916, 41348, 41916, 42161, 42710, 42038, 42580, 42626, 42345, 43139, 43115, 43079, 43056, 43070, 42897, 43038, 42266, 43021, 42991, 42258, 42380, 42375, 42322, 42545, 42321, 41881, 42406, 42751, 42798, 42824, 43096, 42844, 42793, 42633, 42363, 42186, 42588, 43033, 43145, 43525, 43044, 43559, 43426, 43636, 43211, 42473, 42800, 42498, 42757, 43023, 43448, 44418, 44475, 44245, 44561, 44828, 43682, 44978, 44850, 44566, 43865, 44642, 45234, 44981, 44063, 44665, 44605, 45024, 44771, 44571, 44053],
      "WindowCenter": [10502.0, 10435.0, 10415.0, 10400.0, 10394.0, 10399.0, 10391.0, 10384.0, 10373.0, 10385.0, 10387.0, 10408.0, 10400.0, 10392.0, 10382.0, 10359.0, 10357.0, 10355.0, 10358.0, 10370.0, 10353.0, 10361.0, 10356.0, 10375.0, 10401.0, 10393.0, 10398.0, 10382.0, 10374.0, 10380.0, 10385.0, 10400.0, 10429.0, 10409.0, 10383.0, 10367.0, 10351.0, 10359.0, 10371.0, 10403.0, 10423.0, 10404.0, 10386.0, 10362.0, 10360.0, 10355.0, 10353.0, 10342.0, 10335.0, 10341.0, 10343.0, 10337.0, 10350.0, 10353.0, 10361.0, 10362.0, 10355.0, 10370.0, 10382.0, 10380.0, 10374.0, 10376.0, 10375.0, 10388.0, 10384.0, 10387.0, 10393.0, 10395.0, 10405.0, 10390.0, 10388.0, 10382.0, 10400.0, 10346.0, 10386.0, 10364.0, 10336.0, 10328.0, 10328.0, 10313.0, 10290.0, 10261.0, 10263.0, 10279.0, 10321.0, 10343.0, 10332.0, 10312.0, 10315.0, 10331.0, 10351.0, 10355.0, 10355.0, 10358.0, 10353.0, 10350.0, 10367.0, 10374.0, 10404.0, 10388.0, 10393.0, 10362.0, 10332.0, 10319.0, 10324.0, 10326.0, 10310.0, 10306.0, 10311.0, 10318.0, 10314.0, 10314.0, 10310.0, 10328.0, 10350.0, 10361.0, 10361.0, 10361.0, 10353.0, 10347.0, 10317.0, 10290.0, 10288.0, 10288.0, 10296.0, 10303.0, 10292.0, 10285.0, 10295.0, 10282.0, 10294.0, 10312.0, 10327.0, 10325.0, 10337.0, 10334.0, 10344.0, 10346.0, 10354.0, 10351.0, 10350.0, 10344.0, 10342.0, 10332.0, 10335.0, 10347.0, 10331.0, 10327.0, 10327.0, 10336.0, 10325.0, 10321.0, 10313.0, 10337.0, 10332.0, 10311.0, 10308.0, 10300.0, 10300.0, 10301.0, 10292.0, 10277.0, 10275.0, 10280.0, 10274.0, 10273.0, 10271.0, 10271.0, 10280.0, 10305.0, 10310.0, 10304.0, 10287.0, 10297.0, 10318.0, 10343.0, 10344.0, 10357.0, 10365.0, 10362.0, 10342.0, 10319.0, 10300.0, 10298.0, 10306.0, 10299.0, 10297.0, 10307.0, 10311.0, 10322.0, 10364.0, 10380.0, 10345.0, 10332.0, 10335.0, 10329.0, 10314.0, 10320.0, 10326.0, 10303.0, 10279.0, 10277.0, 10295.0, 10317.0, 10308.0, 10291.0, 10278.0],
      "WindowWidth": [22737.0, 22542.0, 22467.0, 22424.0, 22403.0, 22408.0, 22386.0, 22372.0, 22345.0, 22369.0, 22372.0, 22418.0, 22406.0, 22388.0, 22363.0, 22311.0, 22305.0, 22298.0, 22308.0, 22332.0, 22300.0, 22312.0, 22303.0, 22342.0, 22404.0, 22391.0, 22397.0, 22362.0, 22345.0, 22358.0, 22374.0, 22403.0, 22467.0, 22426.0, 22369.0, 22329.0, 22299.0, 22315.0, 22337.0, 22409.0, 22452.0, 22414.0, 22371.0, 22323.0, 22316.0, 22307.0, 22299.0, 22273.0, 22260.0, 22272.0, 22275.0, 22263.0, 22292.0, 22301.0, 22319.0, 22323.0, 22307.0, 22337.0, 22364.0, 22366.0, 22353.0, 22354.0, 22356.0, 22383.0, 22377.0, 22380.0, 22394.0, 22399.0, 22421.0, 22388.0, 22383.0, 22368.0, 22412.0, 22297.0, 22370.0, 22320.0, 22252.0, 22233.0, 22232.0, 22199.0, 22147.0, 22084.0, 22083.0, 22123.0, 22217.0, 22270.0, 22247.0, 22206.0, 22212.0, 22246.0, 22288.0, 22298.0, 22297.0, 22309.0, 22298.0, 22292.0, 22327.0, 22348.0, 22412.0, 22373.0, 22384.0, 22317.0, 22239.0, 22208.0, 22218.0, 22224.0, 22197.0, 22186.0, 22195.0, 22211.0, 22207.0, 22206.0, 22199.0, 22240.0, 22286.0, 22312.0, 22312.0, 22312.0, 22295.0, 22277.0, 22210.0, 22147.0, 22143.0, 22143.0, 22163.0, 22176.0, 22156.0, 22140.0, 22157.0, 22129.0, 22155.0, 22194.0, 22228.0, 22229.0, 22254.0, 22250.0, 22275.0, 22282.0, 22299.0, 22289.0, 22287.0, 22272.0, 22266.0, 22245.0, 22252.0, 22274.0, 22240.0, 22230.0, 22230.0, 22259.0, 22238.0, 22219.0, 22207.0, 22252.0, 22242.0, 22198.0, 22191.0, 22176.0, 22174.0, 22178.0, 22156.0, 22123.0, 22117.0, 22124.0, 22112.0, 22109.0, 22104.0, 22107.0, 22129.0, 22181.0, 22195.0, 22182.0, 22144.0, 22163.0, 22208.0, 22264.0, 22267.0, 22296.0, 22316.0, 22311.0, 22268.0, 22216.0, 22171.0, 22166.0, 22184.0, 22170.0, 22164.0, 22184.0, 22191.0, 22220.0, 22314.0, 22350.0, 22270.0, 22235.0, 22250.0, 22231.0, 22192.0, 22205.0, 22219.0, 22173.0, 22128.0, 22106.0, 22148.0, 22198.0, 22180.0, 22141.0, 22106.0]
    },
    "slices": {}
  }
}