{
  "AcquisitionMatrixPE": 104,
  "AcquisitionNumber": 1,
  "AcquisitionTime": "16:01:40.042500",
  "BandwidthPerPixelPhaseEncode": 17.17,
  "BaseResolution": 104,
  "BodyPartExamined": "BRAIN",
  "CoilCombinationMethod": "Sum of Squares",
  "ConsistencyInfo": "N4_VE11C_LATEST_20160120",
  "ConversionSoftware": "dcm2niix",
  "ConversionSoftwareVersion": "v1.0.20211006",
  "DerivedVendorReportedEchoSpacing": 0.000560011,
  "DeviceSerialNumber": "167006",
  "DwellTime": 2.1e-06,
  "EchoTime": 0.037,
  "EchoTrainLength": 104,
  "EffectiveEchoSpacing": 0.000560011,
  "FlipAngle": 52,
  "HeudiconvVersion": "0.10.0",
  "ImageComments": "Unaliased MB4/PE3/LB",
  "ImageOrientationPatientDICOM": [0.998489, -0.0422831, 0.0351102, 0.0514549, 0.943676, -0.326846],
  "ImageOrientationText": "Tra>Cor(-19.2)>Sag(1.1)",
  "ImageType": [
    "ORIGINAL",
    "PRIMARY",
    "M",
    "MB",
    "ND",
    "MOSAIC"
],
  "ImagingFrequency": 123.259,
  "InPlanePhaseEncodingDirectionDICOM": "COL",
  "InstitutionAddress": "Chemin Queen-Mary 4565,Montreal,District,CA,H3W 1W5",
  "InstitutionName": "IUGM",
  "InstitutionalDepartmentName": "Department",
  "MRAcquisitionType": "2D",
  "MagneticFieldStrength": 3,
  "Manufacturer": "Siemens",
  "ManufacturersModelName": "Prisma_fit",
  "MatrixCoilMode": "SENSE",
  "Modality": "MR",
  "MultibandAccelerationFactor": 4,
  "PartialFourier": 1,
  "PatientPosition": "HFS",
  "PercentPhaseFOV": 100,
  "PercentSampling": 100,
  "PhaseEncodingDirection": "j",
  "PhaseEncodingSteps": 104,
  "PhaseResolution": 1,
  "PixelBandwidth": 2290,
  "ProcedureStepDescription": "games^gamepad",
  "ProtocolName": "func_task-gamepad_run-2",
  "PulseSequenceDetails": "%CustomerSeq%\\cmrr_mbep2d_bold",
  "ReceiveCoilActiveElements": "HC1-7;NC1,2",
  "ReceiveCoilName": "HeadNeck_64",
  "ReconMatrixPE": 104,
  "RepetitionTime": 1.49,
  "SAR": 0.0336054,
  "ScanOptions": "FS",
  "ScanningSequence": "EP",
  "SequenceName": "epfid2d1_104",
  "SequenceVariant": "SK\\SS",
  "SeriesDescription": "func_task-gamepad_run-2",
  "SeriesNumber": 13,
  "ShimSetting": [628, -7234, -8841, 579, -15, -172, -90, -29],
  "SliceThickness": 2,
  "SliceTiming": [0, 0.7825, 0.0975, 0.88, 0.195, 0.98, 0.2925, 1.0775, 0.39, 1.175, 0.49, 1.2725, 0.5875, 1.37, 0.685, 0, 0.7825, 0.0975, 0.88, 0.195, 0.98, 0.2925, 1.0775, 0.39, 1.175, 0.49, 1.2725, 0.5875, 1.37, 0.685, 0, 0.7825, 0.0975, 0.88, 0.195, 0.98, 0.2925, 1.0775, 0.39, 1.175, 0.49, 1.2725, 0.5875, 1.37, 0.685, 0, 0.7825, 0.0975, 0.88, 0.195, 0.98, 0.2925, 1.0775, 0.39, 1.175, 0.49, 1.2725, 0.5875, 1.37, 0.685],
  "SoftwareVersions": "syngo MR E11",
  "SpacingBetweenSlices": 2,
  "StationName": "MRC35049",
  "TaskName": "gamepad",
  "TotalReadoutTime": 0.0576811,
  "TxRefAmp": 230.026,
  "WipMemBlock": "93fa9bb2-c036-4458-a523-0f37e47869c7||Sequence: R016 ve11c/master r/e634e98; Dec 19 2017 11:00:25 by eja",
  "dcmmeta_affine": [
    [-1.9969770908355713, 0.10290981084108353, 0.038625285029411316, 101.41279602050781],
    [0.08456612378358841, 1.8873518705368042, -0.6563165783882141, -68.2492446899414],
    [0.0702204629778862, 0.6536914110183716, 1.8888506889343262, -70.87914276123047],
    [0.0, 0.0, 0.0, 1.0]
],
  "dcmmeta_reorient_transform": [
    [0.0, -1.0, 0.0, 103.0],
    [1.0, 0.0, 0.0, 0.0],
    [0.0, 0.0, 1.0, 0.0],
    [0.0, 0.0, 0.0, 1.0]
],
  "dcmmeta_shape": [104, 104, 60, 157],
  "dcmmeta_slice_dim": 2,
  "dcmmeta_version": 0.6,
  "global": {
    "const": {
      "AcquisitionMatrix": [104, 0, 0, 104],
      "AngioFlag": "N",
      "BitsAllocated": 16,
      "BitsStored": 16,
      "BodyPartExamined": "BRAIN",
      "Columns": 832,
      "EchoNumbers": 1,
      "EchoTime": 37.0,
      "EchoTrainLength": 104,
      "FlipAngle": 52.0,
      "HighBit": 15,
      "ImageOrientationPatient": [0.99848856501694, -0.0422830608464, 0.03511023064389, 0.05145490602241, 0.94367593821984, -0.3268457071328],
      "ImagePositionPatient": [-876.37135207527, -782.36201118176, 208.83450069779],
      "ImageType": [
        "ORIGINAL",
        "PRIMARY",
        "M",
        "MB",
        "ND",
        "MOSAIC"
],
      "ImagedNucleus": "1H",
      "ImagingFrequency": 123.258901,
      "InPlanePhaseEncodingDirection": "COL",
      "MRAcquisitionType": "2D",
      "MagneticFieldStrength": 3.0,
      "Manufacturer": "SIEMENS",
      "ManufacturerModelName": "Prisma_fit",
      "Modality": "MR",
      "NumberOfAverages": 1.0,
      "NumberOfPhaseEncodingSteps": 104,
      "PercentPhaseFieldOfView": 100.0,
      "PercentSampling": 100.0,
      "PerformedProcedureStepStartTime": "155006.181000",
      "PhotometricInterpretation": "MONOCHROME2",
      "PixelBandwidth": 2290.0,
      "PixelRepresentation": 0,
      "PixelSpacing": [2.0, 2.0],
      "ProtocolName": "func_task-gamepad_run-2",
      "RepetitionTime": 1490.0,
      "Rows": 832,
      "SAR": 0.03360544573904,
      "SamplesPerPixel": 1,
      "ScanOptions": "FS",
      "ScanningSequence": "EP",
      "SequenceName": "epfid2d1_104",
      "SequenceVariant": [
        "SK",
        "SS"
],
      "SeriesDescription": "func_task-gamepad_run-2",
      "SeriesNumber": 13,
      "SeriesTime": "160308.084000",
      "SliceLocation": -42.584949576444,
      "SliceThickness": 2.0,
      "SmallestImagePixelValue": 0,
      "SoftwareVersions": "syngo MR E11",
      "SpacingBetweenSlices": 2.0000000399006,
      "SpecificCharacterSet": "ISO_IR 100",
      "StudyID": "1",
      "StudyTime": "155006.094000",
      "TransmitCoilName": "Body",
      "VariableFlipAngleFlag": "N",
      "WindowCenterWidthExplanation": "Algo1",
      "dBdt": 0.0},
    "slices": {}
  },
  "time": {
    "samples": {
      "AcquisitionNumber": [1, 2, 3, 4, 5, 6, 7, 8, 9, 10, 11, 12, 13, 14, 15, 16, 17, 18, 19, 20, 21, 22, 23, 24, 25, 26, 27, 28, 29, 30, 31, 32, 33, 34, 35, 36, 37, 38, 39, 40, 41, 42, 43, 44, 45, 46, 47, 48, 49, 50, 51, 52, 53, 54, 55, 56, 57, 58, 59, 60, 61, 62, 63, 64, 65, 66, 67, 68, 69, 70, 71, 72, 73, 74, 75, 76, 77, 78, 79, 80, 81, 82, 83, 84, 85, 86, 87, 88, 89, 90, 91, 92, 93, 94, 95, 96, 97, 98, 99, 100, 101, 102, 103, 104, 105, 106, 107, 108, 109, 110, 111, 112, 113, 114, 115, 116, 117, 118, 119, 120, 121, 122, 123, 124, 125, 126, 127, 128, 129, 130, 131, 132, 133, 134, 135, 136, 137, 138, 139, 140, 141, 142, 143, 144, 145, 146, 147, 148, 149, 150, 151, 152, 153, 154, 155, 156, 157],
      "AcquisitionTime": ["160140.042500", "160141.532500", "160143.022500", "160144.512500", "160146.002500", "160147.492500", "160148.982500", "160150.472500", "160151.962500", "160153.452500", "160154.942500", "160156.432500", "160157.922500", "160159.412500", "160200.902500", "160202.392500", "160203.882500", "160205.372500", "160206.862500", "160208.352500", "160209.842500", "160211.332500", "160212.822500", "160214.312500", "160215.802500", "160217.292500", "160218.782500", "160220.272500", "160221.762500", "160223.252500", "160224.742500", "160226.232500", "160227.722500", "160229.212500", "160230.702500", "160232.192500", "160233.682500", "160235.172500", "160236.662500", "160238.152500", "160239.642500", "160241.132500", "160242.622500", "160244.112500", "160245.602500", "160247.092500", "160248.582500", "160250.072500", "160251.562500", "160253.052500", "160254.542500", "160256.032500", "160257.522500", "160259.012500", "160300.502500", "160301.992500", "160303.482500", "160304.972500", "160306.462500", "160307.952500", "160309.442500", "160310.932500", "160312.422500", "160313.912500", "160315.402500", "160316.892500", "160318.382500", "160319.872500", "160321.362500", "160322.852500", "160324.342500", "160325.832500", "160327.322500", "160328.812500", "160330.302500", "160331.792500", "160333.282500", "160334.772500", "160336.262500", "160337.752500", "160339.242500", "160340.732500", "160342.222500", "160343.712500", "160345.202500", "160346.692500", "160348.182500", "160349.672500", "160351.162500", "160352.652500", "160354.142500", "160355.632500", "160357.122500", "160358.612500", "160400.102500", "160401.592500", "160403.082500", "160404.572500", "160406.062500", "160407.552500", "160409.042500", "160410.532500", "160412.022500", "160413.512500", "160415.002500", "160416.492500", "160417.982500", "160419.472500", "160420.962500", "160422.452500", "160423.942500", "160425.432500", "160426.922500", "160428.412500", "160429.902500", "160431.392500", "160432.882500", "160434.372500", "160435.862500", "160437.352500", "160438.842500", "160440.332500", "160441.822500", "160443.312500", "160444.802500", "160446.292500", "160447.782500", "160449.272500", "160450.762500", "160452.252500", "160453.742500", "160455.232500", "160456.722500", "160458.212500", "160459.702500", "160501.192500", "160502.682500", "160504.172500", "160505.662500", "160507.152500", "160508.642500", "160510.132500", "160511.622500", "160513.112500", "160514.602500", "160516.092500", "160517.582500", "160519.072500", "160520.562500", "160522.052500", "160523.542500", "160525.032500", "160526.522500", "160528.012500", "160529.502500", "160530.992500", "160532.482500"],
      "ContentTime": ["160308.087000", "160308.091000", "160308.094000", "160308.097000", "160308.101000", "160308.104000", "160308.107000", "160308.111000", "160308.114000", "160308.117000", "160308.121000", "160308.124000", "160308.127000", "160308.131000", "160308.134000", "160308.137000", "160308.140000", "160308.148000", "160308.151000", "160308.155000", "160308.158000", "160308.166000", "160308.169000", "160308.172000", "160308.176000", "160308.179000", "160308.182000", "160308.186000", "160308.189000", "160308.192000", "160308.196000", "160308.199000", "160308.202000", "160308.205000", "160308.209000", "160308.212000", "160328.048000", "160328.052000", "160328.055000", "160328.058000", "160328.062000", "160328.065000", "160328.068000", "160328.072000", "160328.075000", "160328.078000", "160328.082000", "160328.085000", "160328.088000", "160328.091000", "160328.095000", "160328.098000", "160328.101000", "160328.105000", "160328.108000", "160328.111000", "160348.048000", "160348.052000", "160348.055000", "160348.058000", "160348.062000", "160348.065000", "160348.068000", "160348.072000", "160348.075000", "160348.078000", "160348.082000", "160348.085000", "160348.088000", "160348.091000", "160348.095000", "160348.106000", "160348.109000", "160348.113000", "160348.116000", "160348.120000", "160408.048000", "160408.052000", "160408.055000", "160408.058000", "160408.062000", "160408.065000", "160408.068000", "160408.072000", "160408.075000", "160408.078000", "160408.097000", "160408.100000", "160408.103000", "160408.106000", "160408.110000", "160408.113000", "160408.116000", "160408.120000", "160408.123000", "160408.126000", "160408.130000", "160448.047000", "160448.051000", "160448.054000", "160448.058000", "160448.061000", "160448.064000", "160448.067000", "160448.071000", "160448.074000", "160448.077000", "160448.081000", "160448.084000", "160448.087000", "160448.090000", "160448.094000", "160448.097000", "160448.100000", "160448.104000", "160448.107000", "160448.110000", "160448.114000", "160448.117000", "160448.120000", "160448.124000", "160448.127000", "160448.130000", "160448.134000", "160448.137000", "160448.140000", "160528.048000", "160528.052000", "160528.055000", "160528.059000", "160528.062000", "160528.065000", "160528.069000", "160528.072000", "160528.075000", "160528.078000", "160528.082000", "160528.085000", "160528.088000", "160528.092000", "160528.095000", "160528.098000", "160528.102000", "160528.105000", "160528.108000", "160528.112000", "160528.115000", "160528.118000", "160528.122000", "160528.125000", "160528.128000", "160528.132000", "160535.535000", "160535.539000", "160535.543000", "160535.546000", "160535.549000"],
      "InstanceCreationTime": ["160308.087000", "160308.091000", "160308.094000", "160308.097000", "160308.101000", "160308.104000", "160308.107000", "160308.111000", "160308.114000", "160308.117000", "160308.121000", "160308.124000", "160308.127000", "160308.131000", "160308.134000", "160308.137000", "160308.140000", "160308.148000", "160308.151000", "160308.155000", "160308.158000", "160308.166000", "160308.169000", "160308.172000", "160308.176000", "160308.179000", "160308.182000", "160308.186000", "160308.189000", "160308.192000", "160308.196000", "160308.199000", "160308.202000", "160308.205000", "160308.209000", "160308.212000", "160328.048000", "160328.052000", "160328.055000", "160328.058000", "160328.062000", "160328.065000", "160328.068000", "160328.072000", "160328.075000", "160328.078000", "160328.082000", "160328.085000", "160328.088000", "160328.091000", "160328.095000", "160328.098000", "160328.101000", "160328.105000", "160328.108000", "160328.111000", "160348.048000", "160348.052000", "160348.055000", "160348.058000", "160348.062000", "160348.065000", "160348.068000", "160348.072000", "160348.075000", "160348.078000", "160348.082000", "160348.085000", "160348.088000", "160348.091000", "160348.095000", "160348.106000", "160348.109000", "160348.113000", "160348.116000", "160348.120000", "160408.048000", "160408.052000", "160408.055000", "160408.058000", "160408.062000", "160408.065000", "160408.068000", "160408.072000", "160408.075000", "160408.078000", "160408.097000", "160408.100000", "160408.103000", "160408.106000", "160408.110000", "160408.113000", "160408.116000", "160408.120000", "160408.123000", "160408.126000", "160408.130000", "160448.047000", "160448.051000", "160448.054000", "160448.058000", "160448.061000", "160448.064000", "160448.067000", "160448.071000", "160448.074000", "160448.077000", "160448.081000", "160448.084000", "160448.087000", "160448.090000", "160448.094000", "160448.097000", "160448.100000", "160448.104000", "160448.107000", "160448.110000", "160448.114000", "160448.117000", "160448.120000", "160448.124000", "160448.127000", "160448.130000", "160448.134000", "160448.137000", "160448.140000", "160528.048000", "160528.052000", "160528.055000", "160528.059000", "160528.062000", "160528.065000", "160528.069000", "160528.072000", "160528.075000", "160528.078000", "160528.082000", "160528.085000", "160528.088000", "160528.092000", "160528.095000", "160528.098000", "160528.102000", "160528.105000", "160528.108000", "160528.112000", "160528.115000", "160528.118000", "160528.122000", "160528.125000", "160528.128000", "160528.132000", "160535.535000", "160535.539000", "160535.543000", "160535.546000", "160535.549000"],
      "InstanceNumber": [1, 2, 3, 4, 5, 6, 7, 8, 9, 10, 11, 12, 13, 14, 15, 16, 17, 18, 19, 20, 21, 22, 23, 24, 25, 26, 27, 28, 29, 30, 31, 32, 33, 34, 35, 36, 37, 38, 39, 40, 41, 42, 43, 44, 45, 46, 47, 48, 49, 50, 51, 52, 53, 54, 55, 56, 57, 58, 59, 60, 61, 62, 63, 64, 65, 66, 67, 68, 69, 70, 71, 72, 73, 74, 75, 76, 77, 78, 79, 80, 81, 82, 83, 84, 85, 86, 87, 88, 89, 90, 91, 92, 93, 94, 95, 96, 97, 98, 99, 100, 101, 102, 103, 104, 105, 106, 107, 108, 109, 110, 111, 112, 113, 114, 115, 116, 117, 118, 119, 120, 121, 122, 123, 124, 125, 126, 127, 128, 129, 130, 131, 132, 133, 134, 135, 136, 137, 138, 139, 140, 141, 142, 143, 144, 145, 146, 147, 148, 149, 150, 151, 152, 153, 154, 155, 156, 157],
      "LargestImagePixelValue": [47195, 46030, 44224, 44220, 44110, 44145, 44336, 43730, 43575, 43608, 43491, 43643, 43246, 43197, 42957, 44814, 43139, 43460, 42794, 42904, 43429, 43584, 43347, 43123, 43044, 43150, 42940, 43585, 42923, 43173, 43009, 43119, 42855, 43181, 44215, 43172, 43150, 43324, 43197, 43263, 43458, 43101, 43044, 43105, 43469, 43366, 42724, 43066, 43110, 42921, 43229, 42864, 42978, 42853, 43166, 43180, 43466, 43325, 43215, 43142, 43562, 43198, 43380, 43070, 43098, 43116, 43232, 43027, 43030, 42922, 43046, 43335, 43493, 42947, 42926, 43223, 43034, 43218, 43086, 42950, 42733, 42864, 43205, 42739, 43365, 43567, 42995, 42854, 43383, 42937, 42699, 43020, 43013, 42897, 42971, 43064, 42820, 43097, 43098, 43096, 43313, 42976, 43040, 43263, 43119, 42730, 41870, 42976, 42470, 42833, 42770, 41908, 42232, 43048, 43202, 43584, 43662, 43666, 43624, 43799, 43256, 43302, 43550, 43572, 43602, 44096, 43681, 42924, 43644, 42519, 42943, 43064, 42819, 42495, 42619, 41756, 42174, 42635, 42648, 43179, 43496, 43231, 42961, 43194, 43778, 43393, 42606, 42741, 42992, 43150, 42543, 42762, 42351, 42494, 42292, 42269, 42052],
      "WindowCenter": [10389.0, 10356.0, 10339.0, 10315.0, 10297.0, 10288.0, 10286.0, 10272.0, 10258.0, 10253.0, 10267.0, 10281.0, 10291.0, 10301.0, 10310.0, 10348.0, 10364.0, 10360.0, 10333.0, 10319.0, 10328.0, 10330.0, 10339.0, 10340.0, 10333.0, 10326.0, 10324.0, 10328.0, 10354.0, 10376.0, 10358.0, 10347.0, 10332.0, 10320.0, 10304.0, 10284.0, 10285.0, 10278.0, 10257.0, 10256.0, 10276.0, 10287.0, 10289.0, 10290.0, 10317.0, 10339.0, 10313.0, 10301.0, 10292.0, 10291.0, 10304.0, 10323.0, 10341.0, 10327.0, 10309.0, 10297.0, 10319.0, 10323.0, 10308.0, 10292.0, 10281.0, 10287.0, 10294.0, 10295.0, 10298.0, 10312.0, 10321.0, 10299.0, 10291.0, 10291.0, 10311.0, 10327.0, 10338.0, 10317.0, 10292.0, 10282.0, 10289.0, 10303.0, 10307.0, 10308.0, 10298.0, 10299.0, 10304.0, 10300.0, 10305.0, 10313.0, 10306.0, 10299.0, 10311.0, 10315.0, 10311.0, 10301.0, 10298.0, 10304.0, 10307.0, 10328.0, 10318.0, 10312.0, 10305.0, 10304.0, 10291.0, 10293.0, 10314.0, 10329.0, 10311.0, 10281.0, 10267.0, 10207.0, 10207.0, 10227.0, 10268.0, 10253.0, 10233.0, 10228.0, 10228.0, 10267.0, 10301.0, 10314.0, 10293.0, 10274.0, 10266.0, 10277.0, 10287.0, 10272.0, 10248.0, 10253.0, 10290.0, 10291.0, 10276.0, 10256.0, 10247.0, 10236.0, 10219.0, 10221.0, 10246.0, 10262.0, 10277.0, 10296.0, 10316.0, 10341.0, 10348.0, 10336.0, 10327.0, 10300.0, 10272.0, 10253.0, 10245.0, 10252.0, 10260.0, 10267.0, 10264.0, 10271.0, 10274.0, 10295.0, 10291.0, 10285.0, 10283.0],
      "WindowWidth": [22477.0, 22353.0, 22291.0, 22220.0, 22170.0, 22145.0, 22140.0, 22108.0, 22078.0, 22068.0, 22099.0, 22134.0, 22157.0, 22179.0, 22200.0, 22278.0, 22323.0, 22317.0, 22259.0, 22228.0, 22242.0, 22248.0, 22269.0, 22270.0, 22257.0, 22243.0, 22243.0, 22248.0, 22309.0, 22357.0, 22317.0, 22288.0, 22253.0, 22229.0, 22189.0, 22145.0, 22149.0, 22136.0, 22085.0, 22085.0, 22128.0, 22153.0, 22160.0, 22162.0, 22218.0, 22269.0, 22213.0, 22181.0, 22162.0, 22161.0, 22189.0, 22235.0, 22275.0, 22246.0, 22205.0, 22174.0, 22223.0, 22233.0, 22200.0, 22162.0, 22135.0, 22149.0, 22163.0, 22169.0, 22177.0, 22208.0, 22229.0, 22181.0, 22161.0, 22162.0, 22206.0, 22241.0, 22267.0, 22221.0, 22165.0, 22141.0, 22155.0, 22187.0, 22198.0, 22199.0, 22175.0, 22177.0, 22188.0, 22181.0, 22192.0, 22211.0, 22196.0, 22181.0, 22205.0, 22216.0, 22210.0, 22190.0, 22181.0, 22192.0, 22200.0, 22247.0, 22225.0, 22209.0, 22195.0, 22191.0, 22166.0, 22169.0, 22213.0, 22245.0, 22205.0, 22144.0, 22136.0, 21954.0, 21942.0, 21982.0, 22077.0, 22053.0, 22003.0, 21991.0, 21996.0, 22082.0, 22159.0, 22191.0, 22146.0, 22100.0, 22084.0, 22110.0, 22134.0, 22100.0, 22049.0, 22060.0, 22145.0, 22155.0, 22112.0, 22067.0, 22046.0, 22020.0, 21979.0, 21985.0, 22045.0, 22086.0, 22119.0, 22161.0, 22209.0, 22265.0, 22280.0, 22248.0, 22232.0, 22167.0, 22102.0, 22056.0, 22041.0, 22054.0, 22074.0, 22090.0, 22090.0, 22103.0, 22114.0, 22156.0, 22148.0, 22134.0, 22130.0]
    },
    "slices": {}
  }
}