{
  "AcquisitionMatrixPE": 104,
  "AcquisitionNumber": 1,
  "AcquisitionTime": "15:55:42.682500",
  "BandwidthPerPixelPhaseEncode": 17.17,
  "BaseResolution": 104,
  "BodyPartExamined": "BRAIN",
  "CoilCombinationMethod": "Sum of Squares",
  "ConsistencyInfo": "N4_VE11C_LATEST_20160120",
  "ConversionSoftware": "dcm2niix",
  "ConversionSoftwareVersion": "v1.0.20211006",
  "DerivedVendorReportedEchoSpacing": 0.000560011,
  "DeviceSerialNumber": "167006",
  "DwellTime": 2.1e-06,
  "EchoTime": 0.037,
  "EchoTrainLength": 104,
  "EffectiveEchoSpacing": 0.000560011,
  "FlipAngle": 52,
  "HeudiconvVersion": "0.10.0",
  "ImageComments": "Unaliased MB4/PE3/LB",
  "ImageOrientationPatientDICOM": [0.999567, 0.0215577, 0.0200215, -0.0165749, 0.974868, -0.222166],
  "ImageOrientationText": "Tra>Cor(-12.8)>Sag(1.4)",
  "ImageType": [
    "ORIGINAL",
    "PRIMARY",
    "M",
    "MB",
    "ND",
    "MOSAIC"
],
  "ImagingFrequency": 123.259,
  "InPlanePhaseEncodingDirectionDICOM": "COL",
  "InstitutionAddress": "Chemin Queen-Mary 4565,Montreal,District,CA,H3W 1W5",
  "InstitutionName": "IUGM",
  "InstitutionalDepartmentName": "Department",
  "MRAcquisitionType": "2D",
  "MagneticFieldStrength": 3,
  "Manufacturer": "Siemens",
  "ManufacturersModelName": "Prisma_fit",
  "MatrixCoilMode": "SENSE",
  "Modality": "MR",
  "MultibandAccelerationFactor": 4,
  "PartialFourier": 1,
  "PatientPosition": "HFS",
  "PercentPhaseFOV": 100,
  "PercentSampling": 100,
  "PhaseEncodingDirection": "j",
  "PhaseEncodingSteps": 104,
  "PhaseResolution": 1,
  "PixelBandwidth": 2290,
  "ProcedureStepDescription": "games^gamepad",
  "ProtocolName": "func_task-gamepad_run-2",
  "PulseSequenceDetails": "%CustomerSeq%\\cmrr_mbep2d_bold",
  "ReceiveCoilActiveElements": "HC1-7;NC1,2",
  "ReceiveCoilName": "HeadNeck_64",
  "ReconMatrixPE": 104,
  "RepetitionTime": 1.49,
  "SAR": 0.0473907,
  "ScanOptions": "FS",
  "ScanningSequence": "EP",
  "SequenceName": "epfid2d1_104",
  "SequenceVariant": "SK\\SS",
  "SeriesDescription": "func_task-gamepad_run-2",
  "SeriesNumber": 13,
  "ShimSetting": [635, -7229, -8759, 721, 46, -72, 115, -14],
  "SliceThickness": 2,
  "SliceTiming": [0, 0.785, 0.0975, 0.8825, 0.1975, 0.98, 0.295, 1.0775, 0.3925, 1.175, 0.49, 1.275, 0.5875, 1.3725, 0.685, 0, 0.785, 0.0975, 0.8825, 0.1975, 0.98, 0.295, 1.0775, 0.3925, 1.175, 0.49, 1.275, 0.5875, 1.3725, 0.685, 0, 0.785, 0.0975, 0.8825, 0.1975, 0.98, 0.295, 1.0775, 0.3925, 1.175, 0.49, 1.275, 0.5875, 1.3725, 0.685, 0, 0.785, 0.0975, 0.8825, 0.1975, 0.98, 0.295, 1.0775, 0.3925, 1.175, 0.49, 1.275, 0.5875, 1.3725, 0.685],
  "SoftwareVersions": "syngo MR E11",
  "SpacingBetweenSlices": 2,
  "StationName": "MRC35049",
  "TaskName": "gamepad",
  "TotalReadoutTime": 0.0576811,
  "TxRefAmp": 227.454,
  "WipMemBlock": "baffbc2b-1e09-4af7-b837-fbd93c75bcc1||Sequence: R016 ve11c/master r/e634e98; Dec 19 2017 11:00:25 by eja",
  "dcmmeta_affine": [
    [-1.9991341829299927, -0.033149898052215576, 0.04861537367105484, 109.7124252319336],
    [-0.043115321546792984, 1.9497357606887817, -0.4434763789176941, -73.87747192382812],
    [0.04004296660423279, 0.44433245062828064, 1.9496064186096191, -51.49778747558594],
    [0.0, 0.0, 0.0, 1.0]
],
  "dcmmeta_reorient_transform": [
    [0.0, -1.0, 0.0, 103.0],
    [1.0, 0.0, 0.0, 0.0],
    [0.0, 0.0, 1.0, 0.0],
    [0.0, 0.0, 0.0, 1.0]
],
  "dcmmeta_shape": [104, 104, 60, 207],
  "dcmmeta_slice_dim": 2,
  "dcmmeta_version": 0.6,
  "global": {
    "const": {
      "AcquisitionMatrix": [104, 0, 0, 104],
      "AngioFlag": "N",
      "BitsAllocated": 16,
      "BitsStored": 16,
      "BodyPartExamined": "BRAIN",
      "Columns": 832,
      "EchoNumbers": 1,
      "EchoTime": 37.0,
      "EchoTrainLength": 104,
      "FlipAngle": 52.0,
      "HighBit": 15,
      "ImageOrientationPatient": [0.99956711003479, 0.02155766021234, 0.0200214840326, -0.0165749486396, 0.9748679079268, -0.2221662286938],
      "ImagePositionPatient": [-821.91628268986, -852.34312934764, 141.42982894056],
      "ImageType": [
        "ORIGINAL",
        "PRIMARY",
        "M",
        "MB",
        "ND",
        "MOSAIC"
],
      "ImagedNucleus": "1H",
      "ImagingFrequency": 123.258868,
      "InPlanePhaseEncodingDirection": "COL",
      "MRAcquisitionType": "2D",
      "MagneticFieldStrength": 3.0,
      "Manufacturer": "SIEMENS",
      "ManufacturerModelName": "Prisma_fit",
      "Modality": "MR",
      "NumberOfAverages": 1.0,
      "NumberOfPhaseEncodingSteps": 104,
      "PercentPhaseFieldOfView": 100.0,
      "PercentSampling": 100.0,
      "PerformedProcedureStepStartTime": "153430.225000",
      "PhotometricInterpretation": "MONOCHROME2",
      "PixelBandwidth": 2290.0,
      "PixelRepresentation": 0,
      "PixelSpacing": [2.0, 2.0],
      "ProtocolName": "func_task-gamepad_run-2",
      "RepetitionTime": 1490.0,
      "Rows": 832,
      "SAR": 0.04739068706582,
      "SamplesPerPixel": 1,
      "ScanOptions": "FS",
      "ScanningSequence": "EP",
      "SequenceName": "epfid2d1_104",
      "SequenceVariant": [
        "SK",
        "SS"
],
      "SeriesDescription": "func_task-gamepad_run-2",
      "SeriesNumber": 13,
      "SeriesTime": "155640.112000",
      "SliceLocation": -31.151896303569,
      "SliceThickness": 2.0,
      "SmallestImagePixelValue": 0,
      "SoftwareVersions": "syngo MR E11",
      "SpacingBetweenSlices": 1.9999999701073,
      "SpecificCharacterSet": "ISO_IR 100",
      "StudyID": "1",
      "StudyTime": "153430.163000",
      "TransmitCoilName": "Body",
      "VariableFlipAngleFlag": "N",
      "WindowCenterWidthExplanation": "Algo1",
      "dBdt": 0.0},
    "slices": {}
  },
  "time": {
    "samples": {
      "AcquisitionNumber": [1, 2, 3, 4, 5, 6, 7, 8, 9, 10, 11, 12, 13, 14, 15, 16, 17, 18, 19, 20, 21, 22, 23, 24, 25, 26, 27, 28, 29, 30, 31, 32, 33, 34, 35, 36, 37, 38, 39, 40, 41, 42, 43, 44, 45, 46, 47, 48, 49, 50, 51, 52, 53, 54, 55, 56, 57, 58, 59, 60, 61, 62, 63, 64, 65, 66, 67, 68, 69, 70, 71, 72, 73, 74, 75, 76, 77, 78, 79, 80, 81, 82, 83, 84, 85, 86, 87, 88, 89, 90, 91, 92, 93, 94, 95, 96, 97, 98, 99, 100, 101, 102, 103, 104, 105, 106, 107, 108, 109, 110, 111, 112, 113, 114, 115, 116, 117, 118, 119, 120, 121, 122, 123, 124, 125, 126, 127, 128, 129, 130, 131, 132, 133, 134, 135, 136, 137, 138, 139, 140, 141, 142, 143, 144, 145, 146, 147, 148, 149, 150, 151, 152, 153, 154, 155, 156, 157, 158, 159, 160, 161, 162, 163, 164, 165, 166, 167, 168, 169, 170, 171, 172, 173, 174, 175, 176, 177, 178, 179, 180, 181, 182, 183, 184, 185, 186, 187, 188, 189, 190, 191, 192, 193, 194, 195, 196, 197, 198, 199, 200, 201, 202, 203, 204, 205, 206, 207],
      "AcquisitionTime": ["155542.682500", "155544.172500", "155545.662500", "155547.152500", "155548.642500", "155550.132500", "155551.622500", "155553.112500", "155554.602500", "155556.092500", "155557.582500", "155559.072500", "155600.562500", "155602.052500", "155603.542500", "155605.032500", "155606.522500", "155608.012500", "155609.502500", "155610.992500", "155612.482500", "155613.972500", "155615.462500", "155616.952500", "155618.442500", "155619.932500", "155621.422500", "155622.912500", "155624.402500", "155625.892500", "155627.382500", "155628.872500", "155630.362500", "155631.852500", "155633.342500", "155634.832500", "155636.322500", "155637.812500", "155639.302500", "155640.792500", "155642.282500", "155643.772500", "155645.262500", "155646.752500", "155648.242500", "155649.732500", "155651.222500", "155652.712500", "155654.202500", "155655.692500", "155657.182500", "155658.672500", "155700.162500", "155701.652500", "155703.142500", "155704.632500", "155706.122500", "155707.612500", "155709.102500", "155710.592500", "155712.082500", "155713.572500", "155715.062500", "155716.552500", "155718.042500", "155719.532500", "155721.022500", "155722.512500", "155724.002500", "155725.492500", "155726.982500", "155728.472500", "155729.962500", "155731.452500", "155732.942500", "155734.432500", "155735.922500", "155737.412500", "155738.902500", "155740.392500", "155741.882500", "155743.372500", "155744.862500", "155746.352500", "155747.842500", "155749.332500", "155750.822500", "155752.312500", "155753.802500", "155755.292500", "155756.782500", "155758.272500", "155759.762500", "155801.252500", "155802.742500", "155804.232500", "155805.722500", "155807.212500", "155808.702500", "155810.192500", "155811.682500", "155813.172500", "155814.662500", "155816.152500", "155817.642500", "155819.132500", "155820.622500", "155822.112500", "155823.602500", "155825.092500", "155826.582500", "155828.072500", "155829.562500", "155831.052500", "155832.542500", "155834.032500", "155835.522500", "155837.012500", "155838.502500", "155839.992500", "155841.482500", "155842.972500", "155844.462500", "155845.952500", "155847.442500", "155848.932500", "155850.422500", "155851.912500", "155853.402500", "155854.892500", "155856.382500", "155857.872500", "155859.362500", "155900.852500", "155902.342500", "155903.832500", "155905.322500", "155906.812500", "155908.302500", "155909.792500", "155911.282500", "155912.772500", "155914.262500", "155915.752500", "155917.242500", "155918.732500", "155920.222500", "155921.712500", "155923.202500", "155924.692500", "155926.182500", "155927.672500", "155929.162500", "155930.652500", "155932.142500", "155933.632500", "155935.122500", "155936.612500", "155938.102500", "155939.592500", "155941.082500", "155942.572500", "155944.062500", "155945.552500", "155947.042500", "155948.532500", "155950.022500", "155951.512500", "155953.002500", "155954.492500", "155955.982500", "155957.472500", "155958.962500", "160000.452500", "160001.942500", "160003.432500", "160004.922500", "160006.412500", "160007.902500", "160009.392500", "160010.882500", "160012.372500", "160013.862500", "160015.352500", "160016.842500", "160018.332500", "160019.822500", "160021.312500", "160022.802500", "160024.292500", "160025.782500", "160027.272500", "160028.762500", "160030.252500", "160031.742500", "160033.232500", "160034.722500", "160036.212500", "160037.702500", "160039.192500", "160040.682500", "160042.172500", "160043.662500", "160045.152500", "160046.642500", "160048.132500", "160049.622500"],
      "ContentTime": ["155640.115000", "155640.119000", "155640.122000", "155700.080000", "155700.087000", "155700.116000", "155700.120000", "155700.123000", "155700.127000", "155700.130000", "155700.134000", "155700.137000", "155700.140000", "155700.144000", "155700.147000", "155700.151000", "155700.154000", "155700.157000", "155700.161000", "155700.164000", "155700.168000", "155700.171000", "155700.175000", "155720.081000", "155720.085000", "155720.089000", "155720.092000", "155720.095000", "155720.099000", "155720.102000", "155720.105000", "155720.109000", "155720.112000", "155720.116000", "155720.119000", "155720.122000", "155720.126000", "155720.129000", "155720.132000", "155720.136000", "155720.139000", "155720.143000", "155720.146000", "155720.149000", "155740.081000", "155740.085000", "155740.088000", "155740.092000", "155740.095000", "155740.099000", "155740.102000", "155740.106000", "155740.109000", "155740.112000", "155740.116000", "155740.119000", "155740.123000", "155740.126000", "155740.129000", "155740.133000", "155740.136000", "155740.139000", "155740.143000", "155740.153000", "155800.081000", "155800.085000", "155800.088000", "155800.092000", "155800.095000", "155800.098000", "155800.102000", "155800.105000", "155800.109000", "155800.112000", "155800.115000", "155800.119000", "155800.122000", "155800.125000", "155800.129000", "155800.132000", "155800.136000", "155800.139000", "155800.142000", "155800.156000", "155820.081000", "155820.085000", "155820.088000", "155820.092000", "155820.095000", "155820.099000", "155820.102000", "155820.106000", "155820.109000", "155820.112000", "155820.116000", "155820.119000", "155820.123000", "155820.126000", "155820.130000", "155820.133000", "155820.136000", "155820.140000", "155820.143000", "155820.147000", "155820.150000", "155900.080000", "155900.084000", "155900.087000", "155900.091000", "155900.094000", "155900.098000", "155900.101000", "155900.104000", "155900.108000", "155900.111000", "155900.115000", "155900.118000", "155900.122000", "155900.125000", "155900.128000", "155900.132000", "155900.135000", "155900.139000", "155900.142000", "155900.146000", "155900.149000", "155900.153000", "155900.156000", "155900.160000", "155900.163000", "155900.167000", "155900.170000", "155940.081000", "155940.086000", "155940.090000", "155940.093000", "155940.097000", "155940.100000", "155940.103000", "155940.107000", "155940.110000", "155940.113000", "155940.117000", "155940.120000", "155940.124000", "155940.127000", "155940.131000", "155940.134000", "155940.138000", "155940.141000", "155940.144000", "155940.148000", "155940.152000", "155940.155000", "155940.158000", "155940.162000", "155940.165000", "155940.169000", "160020.081000", "160020.085000", "160020.088000", "160020.092000", "160020.096000", "160020.099000", "160020.102000", "160020.106000", "160020.109000", "160020.113000", "160020.116000", "160020.120000", "160020.123000", "160020.127000", "160020.130000", "160020.134000", "160020.137000", "160020.140000", "160020.144000", "160020.147000", "160020.151000", "160020.154000", "160020.158000", "160020.161000", "160020.165000", "160020.168000", "160020.172000", "160051.802000", "160051.805000", "160051.809000", "160051.812000", "160051.816000", "160051.819000", "160051.822000", "160051.826000", "160051.829000", "160051.833000", "160051.836000", "160051.839000", "160051.843000", "160051.846000", "160051.849000", "160051.853000", "160051.856000", "160051.872000", "160051.876000", "160051.879000", "160051.883000", "160051.886000"],
      "InstanceCreationTime": ["155640.115000", "155640.119000", "155640.122000", "155700.080000", "155700.087000", "155700.116000", "155700.120000", "155700.123000", "155700.127000", "155700.130000", "155700.134000", "155700.137000", "155700.140000", "155700.144000", "155700.147000", "155700.151000", "155700.154000", "155700.157000", "155700.161000", "155700.164000", "155700.168000", "155700.171000", "155700.175000", "155720.081000", "155720.085000", "155720.089000", "155720.092000", "155720.095000", "155720.099000", "155720.102000", "155720.105000", "155720.109000", "155720.112000", "155720.116000", "155720.119000", "155720.122000", "155720.126000", "155720.129000", "155720.132000", "155720.136000", "155720.139000", "155720.143000", "155720.146000", "155720.149000", "155740.081000", "155740.085000", "155740.088000", "155740.092000", "155740.095000", "155740.099000", "155740.102000", "155740.106000", "155740.109000", "155740.112000", "155740.116000", "155740.119000", "155740.123000", "155740.126000", "155740.129000", "155740.133000", "155740.136000", "155740.139000", "155740.143000", "155740.153000", "155800.081000", "155800.085000", "155800.088000", "155800.092000", "155800.095000", "155800.098000", "155800.102000", "155800.105000", "155800.109000", "155800.112000", "155800.115000", "155800.119000", "155800.122000", "155800.125000", "155800.129000", "155800.132000", "155800.136000", "155800.139000", "155800.142000", "155800.156000", "155820.081000", "155820.085000", "155820.088000", "155820.092000", "155820.095000", "155820.099000", "155820.102000", "155820.106000", "155820.109000", "155820.112000", "155820.116000", "155820.119000", "155820.123000", "155820.126000", "155820.130000", "155820.133000", "155820.136000", "155820.140000", "155820.143000", "155820.147000", "155820.150000", "155900.080000", "155900.084000", "155900.087000", "155900.091000", "155900.094000", "155900.098000", "155900.101000", "155900.104000", "155900.108000", "155900.111000", "155900.115000", "155900.118000", "155900.122000", "155900.125000", "155900.128000", "155900.132000", "155900.135000", "155900.139000", "155900.142000", "155900.146000", "155900.149000", "155900.153000", "155900.156000", "155900.160000", "155900.163000", "155900.167000", "155900.170000", "155940.081000", "155940.086000", "155940.090000", "155940.093000", "155940.097000", "155940.100000", "155940.103000", "155940.107000", "155940.110000", "155940.113000", "155940.117000", "155940.120000", "155940.124000", "155940.127000", "155940.131000", "155940.134000", "155940.138000", "155940.141000", "155940.144000", "155940.148000", "155940.152000", "155940.155000", "155940.158000", "155940.162000", "155940.165000", "155940.169000", "160020.081000", "160020.085000", "160020.088000", "160020.092000", "160020.096000", "160020.099000", "160020.102000", "160020.106000", "160020.109000", "160020.113000", "160020.116000", "160020.120000", "160020.123000", "160020.127000", "160020.130000", "160020.134000", "160020.137000", "160020.140000", "160020.144000", "160020.147000", "160020.151000", "160020.154000", "160020.158000", "160020.161000", "160020.165000", "160020.168000", "160020.172000", "160051.802000", "160051.805000", "160051.809000", "160051.812000", "160051.816000", "160051.819000", "160051.822000", "160051.826000", "160051.829000", "160051.833000", "160051.836000", "160051.839000", "160051.843000", "160051.846000", "160051.849000", "160051.853000", "160051.856000", "160051.872000", "160051.876000", "160051.879000", "160051.883000", "160051.886000"],
      "InstanceNumber": [1, 2, 3, 4, 5, 6, 7, 8, 9, 10, 11, 12, 13, 14, 15, 16, 17, 18, 19, 20, 21, 22, 23, 24, 25, 26, 27, 28, 29, 30, 31, 32, 33, 34, 35, 36, 37, 38, 39, 40, 41, 42, 43, 44, 45, 46, 47, 48, 49, 50, 51, 52, 53, 54, 55, 56, 57, 58, 59, 60, 61, 62, 63, 64, 65, 66, 67, 68, 69, 70, 71, 72, 73, 74, 75, 76, 77, 78, 79, 80, 81, 82, 83, 84, 85, 86, 87, 88, 89, 90, 91, 92, 93, 94, 95, 96, 97, 98, 99, 100, 101, 102, 103, 104, 105, 106, 107, 108, 109, 110, 111, 112, 113, 114, 115, 116, 117, 118, 119, 120, 121, 122, 123, 124, 125, 126, 127, 128, 129, 130, 131, 132, 133, 134, 135, 136, 137, 138, 139, 140, 141, 142, 143, 144, 145, 146, 147, 148, 149, 150, 151, 152, 153, 154, 155, 156, 157, 158, 159, 160, 161, 162, 163, 164, 165, 166, 167, 168, 169, 170, 171, 172, 173, 174, 175, 176, 177, 178, 179, 180, 181, 182, 183, 184, 185, 186, 187, 188, 189, 190, 191, 192, 193, 194, 195, 196, 197, 198, 199, 200, 201, 202, 203, 204, 205, 206, 207],
      "LargestImagePixelValue": [40844, 39204, 38638, 38233, 37838, 37664, 38079, 37972, 37209, 37860, 37215, 37659, 37519, 37582, 37846, 37341, 37948, 37950, 37523, 37675, 37400, 37104, 37809, 37309, 37145, 37251, 37904, 37555, 37777, 37898, 37534, 37960, 37527, 37705, 37652, 37678, 37662, 37763, 37614, 37617, 37557, 37783, 38553, 37888, 37104, 37710, 37922, 37877, 38149, 37844, 37899, 37955, 37780, 37903, 38024, 38693, 38220, 37917, 38464, 37748, 38019, 37125, 37917, 38063, 38004, 38265, 38650, 38368, 37615, 38436, 38273, 38509, 38649, 38297, 38230, 38186, 38427, 38494, 38717, 38596, 38553, 38407, 38629, 38377, 38375, 38161, 38100, 38542, 38347, 38563, 38707, 38846, 38623, 38404, 38775, 38765, 38879, 38900, 38456, 39204, 38801, 38988, 38994, 39649, 39230, 39833, 39234, 39053, 39361, 38977, 38953, 39345, 38915, 39078, 38912, 38885, 39430, 39018, 39391, 39086, 39387, 39054, 38796, 39627, 40175, 39246, 39471, 39227, 39080, 39639, 39273, 38900, 39362, 39116, 39528, 38950, 39707, 39323, 39466, 39535, 39294, 39049, 39774, 39389, 39215, 39156, 39111, 39167, 39477, 39514, 39116, 38989, 38972, 39064, 39131, 38921, 39452, 39021, 38834, 39005, 39364, 38924, 39385, 39250, 39162, 39168, 39395, 39068, 39261, 39087, 39202, 39317, 39124, 38839, 38760, 39500, 38782, 38429, 39239, 38751, 38630, 39145, 39141, 38919, 39336, 38547, 39150, 39300, 39302, 39160, 38617, 38889, 39361, 38928, 38850, 38893, 39311, 38809, 38631, 39056, 38936, 39347, 38833, 38749, 39415, 38931, 38945],
      "WindowCenter": [10133.0, 10081.0, 10061.0, 10052.0, 10044.0, 10050.0, 10044.0, 10041.0, 10036.0, 10051.0, 10046.0, 10051.0, 10036.0, 10034.0, 10054.0, 10059.0, 10067.0, 10076.0, 10072.0, 10063.0, 10052.0, 10046.0, 10058.0, 10061.0, 10055.0, 10067.0, 10052.0, 10060.0, 10056.0, 10058.0, 10059.0, 10074.0, 10080.0, 10065.0, 10053.0, 10043.0, 10050.0, 10060.0, 10068.0, 10061.0, 10048.0, 10045.0, 10047.0, 10051.0, 10056.0, 10062.0, 10043.0, 10049.0, 10049.0, 10033.0, 10039.0, 10074.0, 10086.0, 10079.0, 10074.0, 10071.0, 10066.0, 10069.0, 10068.0, 10059.0, 10066.0, 10071.0, 10072.0, 10063.0, 10056.0, 10057.0, 10058.0, 10046.0, 10051.0, 10050.0, 10064.0, 10066.0, 10084.0, 10078.0, 10062.0, 10044.0, 10041.0, 10032.0, 10045.0, 10046.0, 10049.0, 10058.0, 10064.0, 10067.0, 10075.0, 10074.0, 10077.0, 10065.0, 10045.0, 10061.0, 10075.0, 10067.0, 10057.0, 10046.0, 10064.0, 10062.0, 10062.0, 10084.0, 10085.0, 10088.0, 10065.0, 10054.0, 10053.0, 10066.0, 10068.0, 10060.0, 10052.0, 10036.0, 10040.0, 10025.0, 10075.0, 10079.0, 10072.0, 10037.0, 10025.0, 10044.0, 10057.0, 10058.0, 10068.0, 10075.0, 10067.0, 10071.0, 10072.0, 10042.0, 10052.0, 10047.0, 10050.0, 10034.0, 10029.0, 10022.0, 10022.0, 10033.0, 10049.0, 10042.0, 10034.0, 10034.0, 10045.0, 10058.0, 10058.0, 10046.0, 10038.0, 10043.0, 10057.0, 10066.0, 10079.0, 10033.0, 10053.0, 10051.0, 10048.0, 10041.0, 10041.0, 10043.0, 10051.0, 10052.0, 10052.0, 10050.0, 10049.0, 10051.0, 10054.0, 10061.0, 10052.0, 10051.0, 10074.0, 10087.0, 10089.0, 10079.0, 10064.0, 10060.0, 10052.0, 10054.0, 10060.0, 10045.0, 10042.0, 10021.0, 10033.0, 10041.0, 10035.0, 10020.0, 10039.0, 10028.0, 10027.0, 10025.0, 10050.0, 10058.0, 10069.0, 10019.0, 10017.0, 10008.0, 10003.0, 10007.0, 10025.0, 10032.0, 10040.0, 10034.0, 10017.0, 10017.0, 10030.0, 10025.0, 10029.0, 10042.0, 10034.0, 10032.0, 10025.0, 10034.0, 10050.0, 10054.0, 10038.0],
      "WindowWidth": [21590.0, 21453.0, 21394.0, 21370.0, 21349.0, 21357.0, 21346.0, 21337.0, 21327.0, 21359.0, 21349.0, 21358.0, 21327.0, 21320.0, 21367.0, 21376.0, 21396.0, 21416.0, 21409.0, 21386.0, 21358.0, 21347.0, 21374.0, 21383.0, 21372.0, 21398.0, 21359.0, 21376.0, 21365.0, 21371.0, 21376.0, 21409.0, 21424.0, 21393.0, 21361.0, 21338.0, 21354.0, 21378.0, 21399.0, 21382.0, 21354.0, 21345.0, 21345.0, 21357.0, 21371.0, 21382.0, 21338.0, 21350.0, 21352.0, 21315.0, 21326.0, 21408.0, 21435.0, 21420.0, 21406.0, 21397.0, 21389.0, 21398.0, 21393.0, 21373.0, 21387.0, 21402.0, 21404.0, 21382.0, 21361.0, 21365.0, 21368.0, 21337.0, 21353.0, 21350.0, 21381.0, 21388.0, 21430.0, 21416.0, 21380.0, 21335.0, 21327.0, 21308.0, 21335.0, 21337.0, 21349.0, 21369.0, 21380.0, 21390.0, 21408.0, 21407.0, 21413.0, 21383.0, 21337.0, 21372.0, 21408.0, 21390.0, 21364.0, 21338.0, 21381.0, 21376.0, 21378.0, 21425.0, 21432.0, 21433.0, 21382.0, 21357.0, 21353.0, 21380.0, 21385.0, 21369.0, 21349.0, 21316.0, 21323.0, 21291.0, 21404.0, 21418.0, 21398.0, 21315.0, 21286.0, 21334.0, 21362.0, 21365.0, 21389.0, 21403.0, 21383.0, 21395.0, 21399.0, 21326.0, 21344.0, 21339.0, 21349.0, 21313.0, 21302.0, 21282.0, 21281.0, 21310.0, 21343.0, 21329.0, 21308.0, 21310.0, 21330.0, 21364.0, 21364.0, 21335.0, 21314.0, 21331.0, 21361.0, 21382.0, 21415.0, 21307.0, 21352.0, 21350.0, 21340.0, 21324.0, 21327.0, 21335.0, 21349.0, 21353.0, 21352.0, 21346.0, 21342.0, 21349.0, 21361.0, 21375.0, 21354.0, 21352.0, 21404.0, 21435.0, 21440.0, 21415.0, 21382.0, 21373.0, 21354.0, 21360.0, 21372.0, 21339.0, 21330.0, 21284.0, 21309.0, 21326.0, 21316.0, 21283.0, 21318.0, 21299.0, 21296.0, 21291.0, 21350.0, 21366.0, 21392.0, 21277.0, 21269.0, 21249.0, 21238.0, 21252.0, 21293.0, 21307.0, 21323.0, 21311.0, 21273.0, 21273.0, 21302.0, 21295.0, 21305.0, 21329.0, 21312.0, 21305.0, 21292.0, 21313.0, 21349.0, 21358.0, 21325.0]
    },
    "slices": {}
  }
}