{
  "AcquisitionMatrixPE": 104,
  "AcquisitionNumber": 1,
  "AcquisitionTime": "15:48:51.990000",
  "BandwidthPerPixelPhaseEncode": 17.17,
  "BaseResolution": 104,
  "BodyPartExamined": "BRAIN",
  "CoilCombinationMethod": "Sum of Squares",
  "ConsistencyInfo": "N4_VE11C_LATEST_20160120",
  "ConversionSoftware": "dcm2niix",
  "ConversionSoftwareVersion": "v1.0.20211006",
  "DerivedVendorReportedEchoSpacing": 0.000560011,
  "DeviceSerialNumber": "167006",
  "DwellTime": 2.1e-06,
  "EchoTime": 0.037,
  "EchoTime1": 0.037,
  "EchoTime2": 0.001,
  "EchoTrainLength": 104,
  "EffectiveEchoSpacing": 0.000560011,
  "FlipAngle": 52,
  "HeudiconvVersion": "0.10.0",
  "ImageComments": "Unaliased MB4/PE3/LB",
  "ImageOrientationPatientDICOM": [0.999567, 0.0215577, 0.0200215, -0.0165749, 0.974868, -0.222166],
  "ImageOrientationText": "Tra>Cor(-12.8)>Sag(1.4)",
  "ImageType": [
    "ORIGINAL",
    "PRIMARY",
    "P",
    "MB",
    "ND",
    "MOSAIC",
    "PHASE"
],
  "ImagingFrequency": 123.259,
  "InPlanePhaseEncodingDirectionDICOM": "COL",
  "InstitutionAddress": "Chemin Queen-Mary 4565,Montreal,District,CA,H3W 1W5",
  "InstitutionName": "IUGM",
  "InstitutionalDepartmentName": "Department",
  "MRAcquisitionType": "2D",
  "MagneticFieldStrength": 3,
  "Manufacturer": "Siemens",
  "ManufacturersModelName": "Prisma_fit",
  "MatrixCoilMode": "SENSE",
  "Modality": "MR",
  "MultibandAccelerationFactor": 4,
  "PartialFourier": 1,
  "PatientPosition": "HFS",
  "PercentPhaseFOV": 100,
  "PercentSampling": 100,
  "PhaseEncodingDirection": "j",
  "PhaseEncodingSteps": 104,
  "PhaseResolution": 1,
  "PixelBandwidth": 2290,
  "ProcedureStepDescription": "games^gamepad",
  "ProtocolName": "func_task-gamepad_run-1",
  "PulseSequenceDetails": "%CustomerSeq%\\cmrr_mbep2d_bold",
  "ReceiveCoilActiveElements": "HC1-7;NC1,2",
  "ReceiveCoilName": "HeadNeck_64",
  "ReconMatrixPE": 104,
  "RepetitionTime": 1.49,
  "SAR": 0.0473907,
  "ScanOptions": "FS",
  "ScanningSequence": "EP",
  "SequenceName": "epfid2d1_104",
  "SequenceVariant": "SK\\SS",
  "SeriesDescription": "func_task-gamepad_run-1",
  "SeriesNumber": 11,
  "ShimSetting": [635, -7229, -8759, 721, 46, -72, 115, -14],
  "SliceThickness": 2,
  "SliceTiming": [0, 0.785, 0.0975, 0.8825, 0.1975, 0.98, 0.295, 1.0775, 0.3925, 1.1775, 0.49, 1.275, 0.5875, 1.3725, 0.6875, 0, 0.785, 0.0975, 0.8825, 0.1975, 0.98, 0.295, 1.0775, 0.3925, 1.1775, 0.49, 1.275, 0.5875, 1.3725, 0.6875, 0, 0.785, 0.0975, 0.8825, 0.1975, 0.98, 0.295, 1.0775, 0.3925, 1.1775, 0.49, 1.275, 0.5875, 1.3725, 0.6875, 0, 0.785, 0.0975, 0.8825, 0.1975, 0.98, 0.295, 1.0775, 0.3925, 1.1775, 0.49, 1.275, 0.5875, 1.3725, 0.6875],
  "SoftwareVersions": "syngo MR E11",
  "SpacingBetweenSlices": 2,
  "StationName": "MRC35049",
  "TaskName": "gamepad",
  "TotalReadoutTime": 0.0576811,
  "TxRefAmp": 227.454,
  "WipMemBlock": "a54b6ba7-6053-466a-b812-a9e28166f731||Sequence: R016 ve11c/master r/e634e98; Dec 19 2017 11:00:25 by eja",
  "dcmmeta_affine": [
    [-1.9991341829299927, -0.033149898052215576, 0.04861537367105484, 109.7124252319336],
    [-0.043115321546792984, 1.9497357606887817, -0.4434763789176941, -73.87747192382812],
    [0.04004296660423279, 0.44433245062828064, 1.9496064186096191, -51.49778747558594],
    [0.0, 0.0, 0.0, 1.0]
],
  "dcmmeta_reorient_transform": [
    [0.0, -1.0, 0.0, 103.0],
    [1.0, 0.0, 0.0, 0.0],
    [0.0, 0.0, 1.0, 0.0],
    [0.0, 0.0, 0.0, 1.0]
],
  "dcmmeta_shape": [104, 104, 60, 207],
  "dcmmeta_slice_dim": 2,
  "dcmmeta_version": 0.6,
  "global": {
    "const": {
      "AcquisitionMatrix": [104, 0, 0, 104],
      "AngioFlag": "N",
      "BitsAllocated": 16,
      "BitsStored": 16,
      "BodyPartExamined": "BRAIN",
      "Columns": 832,
      "EchoNumbers": 1,
      "EchoTime": 37.0,
      "EchoTrainLength": 104,
      "FlipAngle": 52.0,
      "HighBit": 15,
      "ImageOrientationPatient": [0.99956711003479, 0.02155766021234, 0.0200214840326, -0.0165749486396, 0.9748679079268, -0.2221662286938],
      "ImagePositionPatient": [-821.91628268986, -852.34312934764, 141.42982894056],
      "ImageType": [
        "ORIGINAL",
        "PRIMARY",
        "P",
        "MB",
        "ND",
        "MOSAIC"
],
      "ImagedNucleus": "1H",
      "ImagingFrequency": 123.258864,
      "InPlanePhaseEncodingDirection": "COL",
      "LargestImagePixelValue": 4095,
      "MRAcquisitionType": "2D",
      "MagneticFieldStrength": 3.0,
      "Manufacturer": "SIEMENS",
      "ManufacturerModelName": "Prisma_fit",
      "Modality": "MR",
      "NumberOfAverages": 1.0,
      "NumberOfPhaseEncodingSteps": 104,
      "PercentPhaseFieldOfView": 100.0,
      "PercentSampling": 100.0,
      "PerformedProcedureStepStartTime": "153430.225000",
      "PhotometricInterpretation": "MONOCHROME2",
      "PixelBandwidth": 2290.0,
      "PixelRepresentation": 0,
      "PixelSpacing": [2.0, 2.0],
      "ProtocolName": "func_task-gamepad_run-1",
      "RepetitionTime": 1490.0,
      "RescaleIntercept": -4096.0,
      "RescaleSlope": 2.0,
      "RescaleType": "US",
      "Rows": 832,
      "SAR": 0.04739068706582,
      "SamplesPerPixel": 1,
      "ScanOptions": "FS",
      "ScanningSequence": "EP",
      "SequenceName": "epfid2d1_104",
      "SequenceVariant": [
        "SK",
        "SS"
],
      "SeriesDescription": "func_task-gamepad_run-1",
      "SeriesNumber": 11,
      "SeriesTime": "154947.161000",
      "SliceLocation": -31.151896303569,
      "SliceThickness": 2.0,
      "SmallestImagePixelValue": 0,
      "SoftwareVersions": "syngo MR E11",
      "SpacingBetweenSlices": 1.9999999701073,
      "SpecificCharacterSet": "ISO_IR 100",
      "StudyID": "1",
      "StudyTime": "153430.163000",
      "TransmitCoilName": "Body",
      "VariableFlipAngleFlag": "N",
      "WindowCenterWidthExplanation": "Algo1",
      "dBdt": 0.0},
    "slices": {}
  },
  "time": {
    "samples": {
      "AcquisitionNumber": [1, 2, 3, 4, 5, 6, 7, 8, 9, 10, 11, 12, 13, 14, 15, 16, 17, 18, 19, 20, 21, 22, 23, 24, 25, 26, 27, 28, 29, 30, 31, 32, 33, 34, 35, 36, 37, 38, 39, 40, 41, 42, 43, 44, 45, 46, 47, 48, 49, 50, 51, 52, 53, 54, 55, 56, 57, 58, 59, 60, 61, 62, 63, 64, 65, 66, 67, 68, 69, 70, 71, 72, 73, 74, 75, 76, 77, 78, 79, 80, 81, 82, 83, 84, 85, 86, 87, 88, 89, 90, 91, 92, 93, 94, 95, 96, 97, 98, 99, 100, 101, 102, 103, 104, 105, 106, 107, 108, 109, 110, 111, 112, 113, 114, 115, 116, 117, 118, 119, 120, 121, 122, 123, 124, 125, 126, 127, 128, 129, 130, 131, 132, 133, 134, 135, 136, 137, 138, 139, 140, 141, 142, 143, 144, 145, 146, 147, 148, 149, 150, 151, 152, 153, 154, 155, 156, 157, 158, 159, 160, 161, 162, 163, 164, 165, 166, 167, 168, 169, 170, 171, 172, 173, 174, 175, 176, 177, 178, 179, 180, 181, 182, 183, 184, 185, 186, 187, 188, 189, 190, 191, 192, 193, 194, 195, 196, 197, 198, 199, 200, 201, 202, 203, 204, 205, 206, 207],
      "AcquisitionTime": ["154851.990000", "154853.480000", "154854.970000", "154856.460000", "154857.950000", "154859.440000", "154900.930000", "154902.420000", "154903.910000", "154905.400000", "154906.890000", "154908.380000", "154909.870000", "154911.360000", "154912.850000", "154914.340000", "154915.830000", "154917.320000", "154918.810000", "154920.300000", "154921.790000", "154923.280000", "154924.770000", "154926.260000", "154927.750000", "154929.240000", "154930.730000", "154932.220000", "154933.710000", "154935.200000", "154936.690000", "154938.180000", "154939.670000", "154941.160000", "154942.650000", "154944.140000", "154945.630000", "154947.120000", "154948.610000", "154950.100000", "154951.590000", "154953.080000", "154954.570000", "154956.060000", "154957.550000", "154959.040000", "155000.530000", "155002.020000", "155003.510000", "155005.000000", "155006.490000", "155007.980000", "155009.470000", "155010.960000", "155012.450000", "155013.940000", "155015.430000", "155016.920000", "155018.410000", "155019.900000", "155021.390000", "155022.880000", "155024.370000", "155025.860000", "155027.350000", "155028.840000", "155030.330000", "155031.820000", "155033.310000", "155034.800000", "155036.290000", "155037.780000", "155039.270000", "155040.760000", "155042.250000", "155043.740000", "155045.230000", "155046.720000", "155048.210000", "155049.700000", "155051.190000", "155052.680000", "155054.170000", "155055.660000", "155057.150000", "155058.640000", "155100.130000", "155101.620000", "155103.110000", "155104.600000", "155106.090000", "155107.580000", "155109.070000", "155110.560000", "155112.050000", "155113.540000", "155115.030000", "155116.520000", "155118.010000", "155119.500000", "155120.990000", "155122.480000", "155123.970000", "155125.460000", "155126.950000", "155128.440000", "155129.930000", "155131.420000", "155132.910000", "155134.400000", "155135.890000", "155137.380000", "155138.870000", "155140.360000", "155141.850000", "155143.340000", "155144.830000", "155146.320000", "155147.810000", "155149.300000", "155150.790000", "155152.280000", "155153.770000", "155155.260000", "155156.750000", "155158.240000", "155159.730000", "155201.220000", "155202.710000", "155204.200000", "155205.690000", "155207.180000", "155208.670000", "155210.160000", "155211.650000", "155213.140000", "155214.630000", "155216.120000", "155217.610000", "155219.100000", "155220.590000", "155222.080000", "155223.570000", "155225.060000", "155226.550000", "155228.040000", "155229.530000", "155231.020000", "155232.510000", "155234.000000", "155235.490000", "155236.980000", "155238.470000", "155239.960000", "155241.450000", "155242.940000", "155244.430000", "155245.920000", "155247.410000", "155248.900000", "155250.390000", "155251.880000", "155253.370000", "155254.860000", "155256.350000", "155257.840000", "155259.330000", "155300.820000", "155302.310000", "155303.800000", "155305.290000", "155306.780000", "155308.270000", "155309.760000", "155311.250000", "155312.740000", "155314.230000", "155315.720000", "155317.210000", "155318.700000", "155320.190000", "155321.680000", "155323.170000", "155324.660000", "155326.150000", "155327.640000", "155329.130000", "155330.620000", "155332.110000", "155333.600000", "155335.090000", "155336.580000", "155338.070000", "155339.560000", "155341.050000", "155342.540000", "155344.030000", "155345.520000", "155347.010000", "155348.500000", "155349.990000", "155351.480000", "155352.970000", "155354.460000", "155355.950000", "155357.440000", "155358.930000"],
      "ContentTime": ["154947.163000", "155007.217000", "155007.220000", "155007.222000", "155007.225000", "155007.227000", "155007.230000", "155007.232000", "155007.235000", "155007.238000", "155007.240000", "155007.243000", "155007.245000", "155007.248000", "155007.250000", "155007.253000", "155007.255000", "155007.258000", "155007.264000", "155007.267000", "155007.269000", "155027.205000", "155027.207000", "155027.210000", "155027.212000", "155027.215000", "155027.217000", "155027.220000", "155027.223000", "155027.225000", "155027.228000", "155027.230000", "155027.233000", "155027.235000", "155027.238000", "155027.247000", "155027.250000", "155027.252000", "155027.255000", "155027.257000", "155027.260000", "155047.193000", "155047.195000", "155047.198000", "155047.201000", "155047.203000", "155047.206000", "155047.208000", "155047.211000", "155047.213000", "155047.216000", "155047.218000", "155047.221000", "155047.223000", "155047.226000", "155047.228000", "155047.231000", "155047.233000", "155047.236000", "155047.239000", "155047.241000", "155107.191000", "155107.194000", "155107.197000", "155107.199000", "155107.202000", "155107.205000", "155107.207000", "155107.210000", "155107.212000", "155107.215000", "155107.217000", "155107.220000", "155107.222000", "155107.225000", "155107.228000", "155107.230000", "155107.233000", "155107.235000", "155107.238000", "155107.240000", "155107.243000", "155127.185000", "155127.188000", "155127.190000", "155127.193000", "155127.195000", "155127.198000", "155127.200000", "155127.203000", "155127.205000", "155127.208000", "155127.211000", "155127.213000", "155127.216000", "155127.237000", "155127.240000", "155127.242000", "155127.245000", "155127.247000", "155127.250000", "155127.253000", "155207.285000", "155207.288000", "155207.290000", "155207.293000", "155207.295000", "155207.298000", "155207.300000", "155207.303000", "155207.306000", "155207.308000", "155207.311000", "155207.313000", "155207.316000", "155207.318000", "155207.321000", "155207.323000", "155207.326000", "155207.328000", "155207.331000", "155207.334000", "155207.336000", "155207.339000", "155207.341000", "155207.344000", "155207.346000", "155207.349000", "155207.352000", "155207.355000", "155247.235000", "155247.238000", "155247.240000", "155247.243000", "155247.246000", "155247.248000", "155247.251000", "155247.253000", "155247.256000", "155247.258000", "155247.261000", "155247.264000", "155247.266000", "155247.269000", "155247.271000", "155247.274000", "155247.276000", "155247.279000", "155247.282000", "155247.284000", "155247.287000", "155247.289000", "155247.292000", "155247.294000", "155247.297000", "155247.299000", "155247.302000", "155327.237000", "155327.240000", "155327.242000", "155327.245000", "155327.247000", "155327.250000", "155327.253000", "155327.255000", "155327.258000", "155327.260000", "155327.263000", "155327.265000", "155327.268000", "155327.271000", "155327.279000", "155327.282000", "155327.284000", "155327.287000", "155327.289000", "155327.292000", "155327.294000", "155327.297000", "155327.300000", "155327.302000", "155327.305000", "155327.307000", "155327.310000", "155400.943000", "155400.946000", "155400.949000", "155400.952000", "155400.955000", "155400.957000", "155400.960000", "155400.963000", "155400.966000", "155400.969000", "155400.972000", "155400.974000", "155400.977000", "155400.990000", "155400.993000", "155400.996000", "155400.998000", "155401.002000", "155401.005000", "155401.009000", "155401.012000", "155401.015000", "155401.017000"],
      "InstanceCreationTime": ["154947.163000", "155007.217000", "155007.220000", "155007.222000", "155007.225000", "155007.227000", "155007.230000", "155007.232000", "155007.235000", "155007.238000", "155007.240000", "155007.243000", "155007.245000", "155007.248000", "155007.250000", "155007.253000", "155007.255000", "155007.258000", "155007.264000", "155007.267000", "155007.269000", "155027.205000", "155027.207000", "155027.210000", "155027.212000", "155027.215000", "155027.217000", "155027.220000", "155027.223000", "155027.225000", "155027.228000", "155027.230000", "155027.233000", "155027.235000", "155027.238000", "155027.247000", "155027.250000", "155027.252000", "155027.255000", "155027.257000", "155027.260000", "155047.193000", "155047.195000", "155047.198000", "155047.201000", "155047.203000", "155047.206000", "155047.208000", "155047.211000", "155047.213000", "155047.216000", "155047.218000", "155047.221000", "155047.223000", "155047.226000", "155047.228000", "155047.231000", "155047.233000", "155047.236000", "155047.239000", "155047.241000", "155107.191000", "155107.194000", "155107.197000", "155107.199000", "155107.202000", "155107.205000", "155107.207000", "155107.210000", "155107.212000", "155107.215000", "155107.217000", "155107.220000", "155107.222000", "155107.225000", "155107.228000", "155107.230000", "155107.233000", "155107.235000", "155107.238000", "155107.240000", "155107.243000", "155127.185000", "155127.188000", "155127.190000", "155127.193000", "155127.195000", "155127.198000", "155127.200000", "155127.203000", "155127.205000", "155127.208000", "155127.211000", "155127.213000", "155127.216000", "155127.237000", "155127.240000", "155127.242000", "155127.245000", "155127.247000", "155127.250000", "155127.253000", "155207.285000", "155207.288000", "155207.290000", "155207.293000", "155207.295000", "155207.298000", "155207.300000", "155207.303000", "155207.306000", "155207.308000", "155207.311000", "155207.313000", "155207.316000", "155207.318000", "155207.321000", "155207.323000", "155207.326000", "155207.328000", "155207.331000", "155207.334000", "155207.336000", "155207.339000", "155207.341000", "155207.344000", "155207.346000", "155207.349000", "155207.352000", "155207.355000", "155247.235000", "155247.238000", "155247.240000", "155247.243000", "155247.246000", "155247.248000", "155247.251000", "155247.253000", "155247.256000", "155247.258000", "155247.261000", "155247.264000", "155247.266000", "155247.269000", "155247.271000", "155247.274000", "155247.276000", "155247.279000", "155247.282000", "155247.284000", "155247.287000", "155247.289000", "155247.292000", "155247.294000", "155247.297000", "155247.299000", "155247.302000", "155327.237000", "155327.240000", "155327.242000", "155327.245000", "155327.247000", "155327.250000", "155327.253000", "155327.255000", "155327.258000", "155327.260000", "155327.263000", "155327.265000", "155327.268000", "155327.271000", "155327.279000", "155327.282000", "155327.284000", "155327.287000", "155327.289000", "155327.292000", "155327.294000", "155327.297000", "155327.300000", "155327.302000", "155327.305000", "155327.307000", "155327.310000", "155400.943000", "155400.946000", "155400.949000", "155400.952000", "155400.955000", "155400.957000", "155400.960000", "155400.963000", "155400.966000", "155400.969000", "155400.972000", "155400.974000", "155400.977000", "155400.990000", "155400.993000", "155400.996000", "155400.998000", "155401.002000", "155401.005000", "155401.009000", "155401.012000", "155401.015000", "155401.017000"],
      "InstanceNumber": [1, 2, 3, 4, 5, 6, 7, 8, 9, 10, 11, 12, 13, 14, 15, 16, 17, 18, 19, 20, 21, 22, 23, 24, 25, 26, 27, 28, 29, 30, 31, 32, 33, 34, 35, 36, 37, 38, 39, 40, 41, 42, 43, 44, 45, 46, 47, 48, 49, 50, 51, 52, 53, 54, 55, 56, 57, 58, 59, 60, 61, 62, 63, 64, 65, 66, 67, 68, 69, 70, 71, 72, 73, 74, 75, 76, 77, 78, 79, 80, 81, 82, 83, 84, 85, 86, 87, 88, 89, 90, 91, 92, 93, 94, 95, 96, 97, 98, 99, 100, 101, 102, 103, 104, 105, 106, 107, 108, 109, 110, 111, 112, 113, 114, 115, 116, 117, 118, 119, 120, 121, 122, 123, 124, 125, 126, 127, 128, 129, 130, 131, 132, 133, 134, 135, 136, 137, 138, 139, 140, 141, 142, 143, 144, 145, 146, 147, 148, 149, 150, 151, 152, 153, 154, 155, 156, 157, 158, 159, 160, 161, 162, 163, 164, 165, 166, 167, 168, 169, 170, 171, 172, 173, 174, 175, 176, 177, 178, 179, 180, 181, 182, 183, 184, 185, 186, 187, 188, 189, 190, 191, 192, 193, 194, 195, 196, 197, 198, 199, 200, 201, 202, 203, 204, 205, 206, 207],
      "WindowCenter": [4852.0, 4852.0, 4852.0, 4878.0, 4852.0, 4878.0, 4876.0, 4852.0, 4876.0, 4854.0, 4850.0, 4878.0, 4876.0, 4876.0, 4878.0, 4874.0, 4878.0, 4874.0, 4876.0, 4852.0, 4854.0, 4876.0, 4854.0, 4850.0, 4876.0, 4854.0, 4872.0, 4876.0, 4874.0, 4854.0, 4850.0, 4852.0, 4852.0, 4850.0, 4878.0, 4880.0, 4852.0, 4876.0, 4852.0, 4876.0, 4852.0, 4874.0, 4852.0, 4854.0, 4852.0, 4854.0, 4852.0, 4848.0, 4850.0, 4854.0, 4852.0, 4850.0, 4852.0, 4872.0, 4852.0, 4874.0, 4852.0, 4852.0, 4852.0, 4850.0, 4850.0, 4874.0, 4872.0, 4854.0, 4874.0, 4876.0, 4852.0, 4852.0, 4850.0, 4874.0, 4874.0, 4854.0, 4848.0, 4850.0, 4874.0, 4848.0, 4852.0, 4850.0, 4850.0, 4850.0, 4852.0, 4852.0, 4852.0, 4850.0, 4852.0, 4852.0, 4852.0, 4874.0, 4850.0, 4852.0, 4876.0, 4854.0, 4850.0, 4874.0, 4852.0, 4852.0, 4876.0, 4874.0, 4872.0, 4850.0, 4850.0, 4872.0, 4876.0, 4848.0, 4852.0, 4874.0, 4852.0, 4850.0, 4852.0, 4874.0, 4852.0, 4876.0, 4854.0, 4852.0, 4850.0, 4852.0, 4874.0, 4854.0, 4874.0, 4850.0, 4876.0, 4874.0, 4850.0, 4874.0, 4850.0, 4876.0, 4852.0, 4852.0, 4852.0, 4854.0, 4850.0, 4852.0, 4876.0, 4850.0, 4874.0, 4872.0, 4852.0, 4850.0, 4852.0, 4850.0, 4852.0, 4874.0, 4874.0, 4876.0, 4872.0, 4850.0, 4874.0, 4852.0, 4846.0, 4874.0, 4850.0, 4852.0, 4852.0, 4850.0, 4850.0, 4852.0, 4848.0, 4876.0, 4872.0, 4852.0, 4872.0, 4874.0, 4874.0, 4850.0, 4850.0, 4848.0, 4850.0, 4848.0, 4872.0, 4878.0, 4852.0, 4848.0, 4848.0, 4850.0, 4870.0, 4872.0, 4850.0, 4852.0, 4874.0, 4874.0, 4874.0, 4876.0, 4852.0, 4854.0, 4852.0, 4872.0, 4850.0, 4852.0, 4874.0, 4852.0, 4850.0, 4852.0, 4854.0, 4852.0, 4850.0, 4852.0, 4848.0, 4876.0, 4850.0, 4852.0, 4852.0, 4852.0, 4848.0, 4852.0, 4874.0, 4854.0, 4850.0],
      "WindowWidth": [18622.0, 18620.0, 18622.0, 18652.0, 18616.0, 18650.0, 18656.0, 18622.0, 18648.0, 18622.0, 18618.0, 18650.0, 18654.0, 18652.0, 18658.0, 18650.0, 18654.0, 18650.0, 18650.0, 18616.0, 18626.0, 18648.0, 18618.0, 18622.0, 18646.0, 18620.0, 18650.0, 18652.0, 18652.0, 18626.0, 18620.0, 18620.0, 18620.0, 18624.0, 18648.0, 18652.0, 18618.0, 18656.0, 18622.0, 18654.0, 18620.0, 18646.0, 18616.0, 18620.0, 18614.0, 18622.0, 18622.0, 18616.0, 18622.0, 18622.0, 18618.0, 18622.0, 18620.0, 18646.0, 18626.0, 18652.0, 18624.0, 18622.0, 18622.0, 18616.0, 18622.0, 18652.0, 18656.0, 18624.0, 18644.0, 18654.0, 18622.0, 18616.0, 18614.0, 18652.0, 18650.0, 18622.0, 18620.0, 18618.0, 18650.0, 18624.0, 18618.0, 18618.0, 18616.0, 18620.0, 18620.0, 18622.0, 18624.0, 18620.0, 18626.0, 18624.0, 18626.0, 18650.0, 18620.0, 18622.0, 18650.0, 18618.0, 18622.0, 18656.0, 18618.0, 18622.0, 18646.0, 18650.0, 18652.0, 18622.0, 18622.0, 18648.0, 18648.0, 18616.0, 18618.0, 18652.0, 18614.0, 18622.0, 18618.0, 18650.0, 18622.0, 18648.0, 18620.0, 18620.0, 18624.0, 18622.0, 18652.0, 18622.0, 18646.0, 18624.0, 18652.0, 18654.0, 18618.0, 18650.0, 18620.0, 18650.0, 18620.0, 18624.0, 18628.0, 18620.0, 18624.0, 18622.0, 18654.0, 18624.0, 18648.0, 18650.0, 18622.0, 18620.0, 18622.0, 18618.0, 18624.0, 18652.0, 18650.0, 18648.0, 18642.0, 18620.0, 18646.0, 18616.0, 18618.0, 18650.0, 18618.0, 18620.0, 18614.0, 18620.0, 18618.0, 18620.0, 18626.0, 18658.0, 18650.0, 18618.0, 18650.0, 18654.0, 18650.0, 18620.0, 18620.0, 18620.0, 18620.0, 18620.0, 18650.0, 18652.0, 18618.0, 18620.0, 18624.0, 18620.0, 18652.0, 18648.0, 18618.0, 18624.0, 18652.0, 18654.0, 18644.0, 18650.0, 18614.0, 18622.0, 18620.0, 18648.0, 18620.0, 18626.0, 18650.0, 18616.0, 18616.0, 18618.0, 18616.0, 18622.0, 18616.0, 18626.0, 18618.0, 18654.0, 18618.0, 18622.0, 18614.0, 18620.0, 18618.0, 18618.0, 18650.0, 18622.0, 18616.0]
    },
    "slices": {}
  }
}