{
  "AcquisitionMatrixPE": 104,
  "AcquisitionNumber": 1,
  "AcquisitionTime": "18:26:9.312500",
  "BandwidthPerPixelPhaseEncode": 17.17,
  "BaseResolution": 104,
  "BodyPartExamined": "BRAIN",
  "CoilCombinationMethod": "Sum of Squares",
  "ConsistencyInfo": "N4_VE11C_LATEST_20160120",
  "ConversionSoftware": "dcm2niix",
  "ConversionSoftwareVersion": "v1.0.20211006",
  "DerivedVendorReportedEchoSpacing": 0.000560011,
  "DeviceSerialNumber": "167006",
  "DwellTime": 2.1e-06,
  "EchoTime": 0.037,
  "EchoTime1": 0.037,
  "EchoTime2": 0.001,
  "EchoTrainLength": 104,
  "EffectiveEchoSpacing": 0.000560011,
  "FlipAngle": 52,
  "HeudiconvVersion": "0.10.0",
  "ImageComments": "Unaliased MB4/PE3/LB",
  "ImageOrientationPatientDICOM": [0.997722, 0.037357, 0.0561633, -0.0120159, 0.917748, -0.396981],
  "ImageOrientationText": "Tra>Cor(-23.3)>Sag(3.8)",
  "ImageType": [
    "ORIGINAL",
    "PRIMARY",
    "P",
    "MB",
    "ND",
    "MOSAIC",
    "PHASE"
],
  "ImagingFrequency": 123.259,
  "InPlanePhaseEncodingDirectionDICOM": "COL",
  "InstitutionAddress": "Chemin Queen-Mary 4565,Montreal,District,CA,H3W 1W5",
  "InstitutionName": "IUGM",
  "InstitutionalDepartmentName": "Department",
  "MRAcquisitionType": "2D",
  "MagneticFieldStrength": 3,
  "Manufacturer": "Siemens",
  "ManufacturersModelName": "Prisma_fit",
  "MatrixCoilMode": "SENSE",
  "Modality": "MR",
  "MultibandAccelerationFactor": 4,
  "PartialFourier": 1,
  "PatientPosition": "HFS",
  "PercentPhaseFOV": 100,
  "PercentSampling": 100,
  "PhaseEncodingDirection": "j",
  "PhaseEncodingSteps": 104,
  "PhaseResolution": 1,
  "PixelBandwidth": 2290,
  "ProcedureStepDescription": "games^gamepad",
  "ProtocolName": "func_task-gamepad_run-2",
  "PulseSequenceDetails": "%CustomerSeq%\\cmrr_mbep2d_bold",
  "ReceiveCoilActiveElements": "HC1-7;NC1,2",
  "ReceiveCoilName": "HeadNeck_64",
  "ReconMatrixPE": 104,
  "RepetitionTime": 1.49,
  "SAR": 0.0432369,
  "ScanOptions": "FS",
  "ScanningSequence": "EP",
  "SequenceName": "epfid2d1_104",
  "SequenceVariant": "SK\\SS",
  "SeriesDescription": "func_task-gamepad_run-2",
  "SeriesNumber": 14,
  "ShimSetting": [631, -7190, -8836, 591, 63, 2, -80, -5],
  "SliceThickness": 2,
  "SliceTiming": [0, 0.7825, 0.0975, 0.88, 0.195, 0.98, 0.2925, 1.0775, 0.39, 1.175, 0.49, 1.2725, 0.5875, 1.37, 0.685, 0, 0.7825, 0.0975, 0.88, 0.195, 0.98, 0.2925, 1.0775, 0.39, 1.175, 0.49, 1.2725, 0.5875, 1.37, 0.685, 0, 0.7825, 0.0975, 0.88, 0.195, 0.98, 0.2925, 1.0775, 0.39, 1.175, 0.49, 1.2725, 0.5875, 1.37, 0.685, 0, 0.7825, 0.0975, 0.88, 0.195, 0.98, 0.2925, 1.0775, 0.39, 1.175, 0.49, 1.2725, 0.5875, 1.37, 0.685],
  "SoftwareVersions": "syngo MR E11",
  "SpacingBetweenSlices": 2,
  "StationName": "MRC35049",
  "TaskName": "gamepad",
  "TotalReadoutTime": 0.0576811,
  "TxRefAmp": 263.092,
  "WipMemBlock": "90d8ff67-452c-4ed2-9169-1397c3ac6f5f||Sequence: R016 ve11c/master r/e634e98; Dec 19 2017 11:00:25 by eja",
  "dcmmeta_affine": [
    [-1.995444893836975, -0.024031873792409897, 0.132747620344162, 105.50930786132812],
    [-0.07471401989459991, 1.8354965448379517, -0.7908035516738892, -53.336090087890625],
    [0.11232665926218033, 0.7939615249633789, 1.8322138786315918, -74.24893188476562],
    [0.0, 0.0, 0.0, 1.0]
],
  "dcmmeta_reorient_transform": [
    [0.0, -1.0, 0.0, 103.0],
    [1.0, 0.0, 0.0, 0.0],
    [0.0, 0.0, 1.0, 0.0],
    [0.0, 0.0, 0.0, 1.0]
],
  "dcmmeta_shape": [104, 104, 60, 207],
  "dcmmeta_slice_dim": 2,
  "dcmmeta_version": 0.6,
  "global": {
    "const": {
      "AcquisitionMatrix": [104, 0, 0, 104],
      "AngioFlag": "N",
      "BitsAllocated": 16,
      "BitsStored": 16,
      "BodyPartExamined": "BRAIN",
      "Columns": 832,
      "EchoNumbers": 1,
      "EchoTime": 37.0,
      "EchoTrainLength": 104,
      "FlipAngle": 52.0,
      "HighBit": 15,
      "ImageOrientationPatient": [0.99772247355204, 0.03735701065631, 0.05616332899706, -0.012015937282, 0.91774827145706, -0.3969807646333],
      "ImagePositionPatient": [-820.62838050027, -831.03669765412, 255.64420145056],
      "ImageType": [
        "ORIGINAL",
        "PRIMARY",
        "P",
        "MB",
        "ND",
        "MOSAIC"
],
      "ImagedNucleus": "1H",
      "ImagingFrequency": 123.258919,
      "InPlanePhaseEncodingDirection": "COL",
      "LargestImagePixelValue": 4095,
      "MRAcquisitionType": "2D",
      "MagneticFieldStrength": 3.0,
      "Manufacturer": "SIEMENS",
      "ManufacturerModelName": "Prisma_fit",
      "Modality": "MR",
      "NumberOfAverages": 1.0,
      "NumberOfPhaseEncodingSteps": 104,
      "PercentPhaseFieldOfView": 100.0,
      "PercentSampling": 100.0,
      "PerformedProcedureStepStartTime": "181215.814000",
      "PhotometricInterpretation": "MONOCHROME2",
      "PixelBandwidth": 2290.0,
      "PixelRepresentation": 0,
      "PixelSpacing": [2.0, 2.0],
      "ProtocolName": "func_task-gamepad_run-2",
      "RepetitionTime": 1490.0,
      "RescaleIntercept": -4096.0,
      "RescaleSlope": 2.0,
      "RescaleType": "US",
      "Rows": 832,
      "SAR": 0.04323685270226,
      "SamplesPerPixel": 1,
      "ScanOptions": "FS",
      "ScanningSequence": "EP",
      "SequenceName": "epfid2d1_104",
      "SequenceVariant": [
        "SK",
        "SS"
],
      "SeriesDescription": "func_task-gamepad_run-2",
      "SeriesNumber": 14,
      "SeriesTime": "182719.720000",
      "SliceLocation": -39.927720251755,
      "SliceThickness": 2.0,
      "SmallestImagePixelValue": 0,
      "SoftwareVersions": "syngo MR E11",
      "SpacingBetweenSlices": 1.9999999949892,
      "SpecificCharacterSet": "ISO_IR 100",
      "StudyID": "1",
      "StudyTime": "181215.736000",
      "TransmitCoilName": "Body",
      "VariableFlipAngleFlag": "N",
      "WindowCenterWidthExplanation": "Algo1",
      "dBdt": 0.0},
    "slices": {}
  },
  "time": {
    "samples": {
      "AcquisitionNumber": [1, 2, 3, 4, 5, 6, 7, 8, 9, 10, 11, 12, 13, 14, 15, 16, 17, 18, 19, 20, 21, 22, 23, 24, 25, 26, 27, 28, 29, 30, 31, 32, 33, 34, 35, 36, 37, 38, 39, 40, 41, 42, 43, 44, 45, 46, 47, 48, 49, 50, 51, 52, 53, 54, 55, 56, 57, 58, 59, 60, 61, 62, 63, 64, 65, 66, 67, 68, 69, 70, 71, 72, 73, 74, 75, 76, 77, 78, 79, 80, 81, 82, 83, 84, 85, 86, 87, 88, 89, 90, 91, 92, 93, 94, 95, 96, 97, 98, 99, 100, 101, 102, 103, 104, 105, 106, 107, 108, 109, 110, 111, 112, 113, 114, 115, 116, 117, 118, 119, 120, 121, 122, 123, 124, 125, 126, 127, 128, 129, 130, 131, 132, 133, 134, 135, 136, 137, 138, 139, 140, 141, 142, 143, 144, 145, 146, 147, 148, 149, 150, 151, 152, 153, 154, 155, 156, 157, 158, 159, 160, 161, 162, 163, 164, 165, 166, 167, 168, 169, 170, 171, 172, 173, 174, 175, 176, 177, 178, 179, 180, 181, 182, 183, 184, 185, 186, 187, 188, 189, 190, 191, 192, 193, 194, 195, 196, 197, 198, 199, 200, 201, 202, 203, 204, 205, 206, 207],
      "AcquisitionTime": ["182609.312500", "182610.802500", "182612.292500", "182613.782500", "182615.272500", "182616.762500", "182618.252500", "182619.742500", "182621.232500", "182622.722500", "182624.212500", "182625.702500", "182627.192500", "182628.682500", "182630.172500", "182631.662500", "182633.152500", "182634.642500", "182636.132500", "182637.622500", "182639.112500", "182640.602500", "182642.092500", "182643.582500", "182645.072500", "182646.562500", "182648.052500", "182649.542500", "182651.032500", "182652.522500", "182654.012500", "182655.502500", "182656.992500", "182658.482500", "182659.972500", "182701.462500", "182702.952500", "182704.442500", "182705.932500", "182707.422500", "182708.912500", "182710.402500", "182711.892500", "182713.382500", "182714.872500", "182716.362500", "182717.852500", "182719.342500", "182720.832500", "182722.322500", "182723.812500", "182725.302500", "182726.792500", "182728.282500", "182729.772500", "182731.262500", "182732.752500", "182734.242500", "182735.732500", "182737.222500", "182738.712500", "182740.202500", "182741.692500", "182743.182500", "182744.672500", "182746.162500", "182747.652500", "182749.142500", "182750.632500", "182752.122500", "182753.612500", "182755.102500", "182756.592500", "182758.082500", "182759.572500", "182801.062500", "182802.552500", "182804.042500", "182805.532500", "182807.022500", "182808.512500", "182810.002500", "182811.492500", "182812.982500", "182814.472500", "182815.962500", "182817.452500", "182818.942500", "182820.432500", "182821.922500", "182823.412500", "182824.902500", "182826.392500", "182827.882500", "182829.372500", "182830.862500", "182832.352500", "182833.842500", "182835.332500", "182836.822500", "182838.312500", "182839.802500", "182841.292500", "182842.782500", "182844.272500", "182845.762500", "182847.252500", "182848.742500", "182850.232500", "182851.722500", "182853.212500", "182854.702500", "182856.192500", "182857.682500", "182859.172500", "182900.662500", "182902.152500", "182903.642500", "182905.132500", "182906.622500", "182908.112500", "182909.602500", "182911.092500", "182912.582500", "182914.072500", "182915.562500", "182917.052500", "182918.542500", "182920.032500", "182921.522500", "182923.012500", "182924.502500", "182925.992500", "182927.482500", "182928.972500", "182930.462500", "182931.952500", "182933.442500", "182934.932500", "182936.422500", "182937.912500", "182939.402500", "182940.892500", "182942.382500", "182943.872500", "182945.362500", "182946.852500", "182948.342500", "182949.832500", "182951.322500", "182952.812500", "182954.302500", "182955.792500", "182957.282500", "182958.772500", "183000.262500", "183001.752500", "183003.242500", "183004.732500", "183006.222500", "183007.712500", "183009.202500", "183010.692500", "183012.182500", "183013.672500", "183015.162500", "183016.652500", "183018.142500", "183019.632500", "183021.122500", "183022.612500", "183024.102500", "183025.592500", "183027.082500", "183028.572500", "183030.062500", "183031.552500", "183033.042500", "183034.532500", "183036.022500", "183037.512500", "183039.002500", "183040.492500", "183041.982500", "183043.472500", "183044.962500", "183046.452500", "183047.942500", "183049.432500", "183050.922500", "183052.412500", "183053.902500", "183055.392500", "183056.882500", "183058.372500", "183059.862500", "183101.352500", "183102.842500", "183104.332500", "183105.822500", "183107.312500", "183108.802500", "183110.292500", "183111.782500", "183113.272500", "183114.762500", "183116.252500"],
      "ContentTime": ["182719.722000", "182719.725000", "182719.727000", "182719.730000", "182719.741000", "182719.743000", "182719.746000", "182719.748000", "182719.751000", "182719.759000", "182719.762000", "182719.764000", "182719.767000", "182719.770000", "182719.772000", "182719.775000", "182719.777000", "182739.735000", "182739.738000", "182739.741000", "182739.743000", "182739.746000", "182739.748000", "182739.751000", "182739.753000", "182739.756000", "182739.758000", "182739.761000", "182739.763000", "182739.766000", "182739.768000", "182739.771000", "182739.773000", "182739.776000", "182739.778000", "182739.781000", "182739.783000", "182739.786000", "182759.723000", "182759.726000", "182759.728000", "182759.730000", "182759.733000", "182759.736000", "182759.738000", "182759.740000", "182759.743000", "182759.745000", "182759.748000", "182759.750000", "182759.753000", "182759.755000", "182759.758000", "182759.760000", "182759.763000", "182759.765000", "182759.768000", "182759.770000", "182819.716000", "182819.719000", "182819.721000", "182819.724000", "182819.726000", "182819.729000", "182819.731000", "182819.734000", "182819.736000", "182819.739000", "182819.741000", "182819.744000", "182819.746000", "182819.749000", "182819.751000", "182819.754000", "182819.756000", "182819.759000", "182819.761000", "182819.764000", "182839.708000", "182839.711000", "182839.713000", "182839.716000", "182839.718000", "182839.721000", "182839.723000", "182839.726000", "182839.728000", "182839.731000", "182839.733000", "182839.736000", "182839.738000", "182839.741000", "182839.743000", "182839.746000", "182839.748000", "182839.751000", "182839.753000", "182839.756000", "182919.740000", "182919.743000", "182919.745000", "182919.748000", "182919.751000", "182919.754000", "182919.756000", "182919.759000", "182919.761000", "182919.764000", "182919.766000", "182919.769000", "182919.771000", "182919.774000", "182919.776000", "182919.779000", "182919.781000", "182919.784000", "182919.786000", "182919.789000", "182919.791000", "182919.794000", "182919.796000", "182919.799000", "182919.801000", "182919.804000", "182919.806000", "182919.809000", "182919.811000", "182959.753000", "182959.756000", "182959.758000", "182959.761000", "182959.763000", "182959.766000", "182959.768000", "182959.771000", "182959.773000", "182959.776000", "182959.778000", "182959.781000", "182959.783000", "182959.786000", "182959.789000", "182959.791000", "182959.793000", "182959.796000", "182959.798000", "182959.801000", "182959.803000", "182959.806000", "182959.808000", "182959.811000", "182959.813000", "182959.816000", "182959.819000", "183039.732000", "183039.735000", "183039.737000", "183039.740000", "183039.742000", "183039.745000", "183039.756000", "183039.758000", "183039.761000", "183039.763000", "183039.766000", "183039.769000", "183039.771000", "183039.774000", "183039.777000", "183039.779000", "183039.782000", "183039.784000", "183039.787000", "183039.789000", "183039.792000", "183039.794000", "183039.797000", "183039.799000", "183039.802000", "183039.804000", "183118.588000", "183118.591000", "183118.594000", "183118.597000", "183118.599000", "183118.602000", "183118.604000", "183118.607000", "183118.609000", "183118.612000", "183118.615000", "183118.617000", "183118.620000", "183118.622000", "183118.625000", "183118.627000", "183118.630000", "183118.632000", "183118.635000", "183118.637000", "183118.640000", "183118.642000", "183118.645000", "183118.648000", "183118.650000", "183118.659000", "183118.662000"],
      "InstanceCreationTime": ["182719.722000", "182719.725000", "182719.727000", "182719.730000", "182719.741000", "182719.743000", "182719.746000", "182719.748000", "182719.751000", "182719.759000", "182719.762000", "182719.764000", "182719.767000", "182719.770000", "182719.772000", "182719.775000", "182719.777000", "182739.735000", "182739.738000", "182739.741000", "182739.743000", "182739.746000", "182739.748000", "182739.751000", "182739.753000", "182739.756000", "182739.758000", "182739.761000", "182739.763000", "182739.766000", "182739.768000", "182739.771000", "182739.773000", "182739.776000", "182739.778000", "182739.781000", "182739.783000", "182739.786000", "182759.723000", "182759.726000", "182759.728000", "182759.730000", "182759.733000", "182759.736000", "182759.738000", "182759.740000", "182759.743000", "182759.745000", "182759.748000", "182759.750000", "182759.753000", "182759.755000", "182759.758000", "182759.760000", "182759.763000", "182759.765000", "182759.768000", "182759.770000", "182819.716000", "182819.719000", "182819.721000", "182819.724000", "182819.726000", "182819.729000", "182819.731000", "182819.734000", "182819.736000", "182819.739000", "182819.741000", "182819.744000", "182819.746000", "182819.749000", "182819.751000", "182819.754000", "182819.756000", "182819.759000", "182819.761000", "182819.764000", "182839.708000", "182839.711000", "182839.713000", "182839.716000", "182839.718000", "182839.721000", "182839.723000", "182839.726000", "182839.728000", "182839.731000", "182839.733000", "182839.736000", "182839.738000", "182839.741000", "182839.743000", "182839.746000", "182839.748000", "182839.751000", "182839.753000", "182839.756000", "182919.740000", "182919.743000", "182919.745000", "182919.748000", "182919.751000", "182919.754000", "182919.756000", "182919.759000", "182919.761000", "182919.764000", "182919.766000", "182919.769000", "182919.771000", "182919.774000", "182919.776000", "182919.779000", "182919.781000", "182919.784000", "182919.786000", "182919.789000", "182919.791000", "182919.794000", "182919.796000", "182919.799000", "182919.801000", "182919.804000", "182919.806000", "182919.809000", "182919.811000", "182959.753000", "182959.756000", "182959.758000", "182959.761000", "182959.763000", "182959.766000", "182959.768000", "182959.771000", "182959.773000", "182959.776000", "182959.778000", "182959.781000", "182959.783000", "182959.786000", "182959.789000", "182959.791000", "182959.793000", "182959.796000", "182959.798000", "182959.801000", "182959.803000", "182959.806000", "182959.808000", "182959.811000", "182959.813000", "182959.816000", "182959.819000", "183039.732000", "183039.735000", "183039.737000", "183039.740000", "183039.742000", "183039.745000", "183039.756000", "183039.758000", "183039.761000", "183039.763000", "183039.766000", "183039.769000", "183039.771000", "183039.774000", "183039.777000", "183039.779000", "183039.782000", "183039.784000", "183039.787000", "183039.789000", "183039.792000", "183039.794000", "183039.797000", "183039.799000", "183039.802000", "183039.804000", "183118.588000", "183118.591000", "183118.594000", "183118.597000", "183118.599000", "183118.602000", "183118.604000", "183118.607000", "183118.609000", "183118.612000", "183118.615000", "183118.617000", "183118.620000", "183118.622000", "183118.625000", "183118.627000", "183118.630000", "183118.632000", "183118.635000", "183118.637000", "183118.640000", "183118.642000", "183118.645000", "183118.648000", "183118.650000", "183118.659000", "183118.662000"],
      "InstanceNumber": [1, 2, 3, 4, 5, 6, 7, 8, 9, 10, 11, 12, 13, 14, 15, 16, 17, 18, 19, 20, 21, 22, 23, 24, 25, 26, 27, 28, 29, 30, 31, 32, 33, 34, 35, 36, 37, 38, 39, 40, 41, 42, 43, 44, 45, 46, 47, 48, 49, 50, 51, 52, 53, 54, 55, 56, 57, 58, 59, 60, 61, 62, 63, 64, 65, 66, 67, 68, 69, 70, 71, 72, 73, 74, 75, 76, 77, 78, 79, 80, 81, 82, 83, 84, 85, 86, 87, 88, 89, 90, 91, 92, 93, 94, 95, 96, 97, 98, 99, 100, 101, 102, 103, 104, 105, 106, 107, 108, 109, 110, 111, 112, 113, 114, 115, 116, 117, 118, 119, 120, 121, 122, 123, 124, 125, 126, 127, 128, 129, 130, 131, 132, 133, 134, 135, 136, 137, 138, 139, 140, 141, 142, 143, 144, 145, 146, 147, 148, 149, 150, 151, 152, 153, 154, 155, 156, 157, 158, 159, 160, 161, 162, 163, 164, 165, 166, 167, 168, 169, 170, 171, 172, 173, 174, 175, 176, 177, 178, 179, 180, 181, 182, 183, 184, 185, 186, 187, 188, 189, 190, 191, 192, 193, 194, 195, 196, 197, 198, 199, 200, 201, 202, 203, 204, 205, 206, 207],
      "WindowCenter": [4878.0, 4852.0, 4856.0, 4854.0, 4874.0, 4880.0, 4872.0, 4852.0, 4852.0, 4852.0, 4874.0, 4876.0, 4852.0, 4876.0, 4878.0, 4878.0, 4876.0, 4852.0, 4854.0, 4874.0, 4874.0, 4878.0, 4876.0, 4846.0, 4850.0, 4874.0, 4874.0, 4876.0, 4876.0, 4852.0, 4852.0, 4878.0, 4878.0, 4876.0, 4876.0, 4874.0, 4876.0, 4874.0, 4876.0, 4852.0, 4874.0, 4878.0, 4872.0, 4852.0, 4876.0, 4876.0, 4874.0, 4854.0, 4854.0, 4872.0, 4876.0, 4876.0, 4872.0, 4874.0, 4872.0, 4878.0, 4874.0, 4878.0, 4874.0, 4874.0, 4876.0, 4852.0, 4876.0, 4898.0, 4876.0, 4878.0, 4852.0, 4850.0, 4872.0, 4874.0, 4876.0, 4876.0, 4876.0, 4852.0, 4872.0, 4874.0, 4872.0, 4874.0, 4852.0, 4852.0, 4874.0, 4872.0, 4876.0, 4876.0, 4874.0, 4878.0, 4876.0, 4874.0, 4874.0, 4872.0, 4870.0, 4870.0, 4876.0, 4874.0, 4872.0, 4874.0, 4874.0, 4872.0, 4870.0, 4874.0, 4874.0, 4874.0, 4874.0, 4874.0, 4876.0, 4876.0, 4876.0, 4874.0, 4876.0, 4878.0, 4874.0, 4876.0, 4872.0, 4874.0, 4872.0, 4874.0, 4870.0, 4866.0, 4864.0, 4872.0, 4872.0, 4846.0, 4824.0, 4846.0, 4876.0, 4868.0, 4870.0, 4868.0, 4874.0, 4874.0, 4874.0, 4850.0, 4848.0, 4852.0, 4874.0, 4876.0, 4874.0, 4874.0, 4866.0, 4864.0, 4876.0, 4878.0, 4848.0, 4852.0, 4874.0, 4876.0, 4874.0, 4876.0, 4866.0, 4870.0, 4874.0, 4848.0, 4850.0, 4874.0, 4874.0, 4874.0, 4876.0, 4876.0, 4874.0, 4872.0, 4876.0, 4876.0, 4874.0, 4872.0, 4874.0, 4872.0, 4874.0, 4874.0, 4874.0, 4876.0, 4874.0, 4876.0, 4876.0, 4876.0, 4874.0, 4872.0, 4874.0, 4874.0, 4874.0, 4874.0, 4874.0, 4874.0, 4872.0, 4874.0, 4874.0, 4876.0, 4872.0, 4874.0, 4876.0, 4870.0, 4874.0, 4876.0, 4874.0, 4874.0, 4876.0, 4874.0, 4874.0, 4874.0, 4872.0, 4876.0, 4874.0, 4874.0, 4870.0, 4866.0, 4876.0, 4876.0, 4852.0],
      "WindowWidth": [18680.0, 18640.0, 18644.0, 18642.0, 18684.0, 18688.0, 18676.0, 18644.0, 18638.0, 18646.0, 18686.0, 18678.0, 18646.0, 18678.0, 18688.0, 18688.0, 18674.0, 18636.0, 18642.0, 18684.0, 18688.0, 18690.0, 18678.0, 18634.0, 18636.0, 18672.0, 18680.0, 18684.0, 18678.0, 18642.0, 18642.0, 18682.0, 18678.0, 18680.0, 18676.0, 18684.0, 18686.0, 18680.0, 18676.0, 18646.0, 18680.0, 18686.0, 18678.0, 18646.0, 18686.0, 18684.0, 18684.0, 18640.0, 18646.0, 18678.0, 18688.0, 18684.0, 18676.0, 18672.0, 18682.0, 18686.0, 18672.0, 18678.0, 18682.0, 18682.0, 18674.0, 18646.0, 18686.0, 18722.0, 18694.0, 18682.0, 18642.0, 18636.0, 18678.0, 18688.0, 18688.0, 18680.0, 18678.0, 18642.0, 18682.0, 18686.0, 18682.0, 18674.0, 18642.0, 18646.0, 18676.0, 18684.0, 18682.0, 18680.0, 18680.0, 18690.0, 18688.0, 18680.0, 18678.0, 18676.0, 18682.0, 18686.0, 18680.0, 18676.0, 18676.0, 18678.0, 18672.0, 18674.0, 18672.0, 18684.0, 18682.0, 18684.0, 18690.0, 18692.0, 18688.0, 18674.0, 18676.0, 18682.0, 18680.0, 18672.0, 18678.0, 18688.0, 18678.0, 18680.0, 18676.0, 18676.0, 18694.0, 18696.0, 18692.0, 18698.0, 18678.0, 18630.0, 18596.0, 18632.0, 18676.0, 18686.0, 18688.0, 18686.0, 18684.0, 18686.0, 18686.0, 18650.0, 18636.0, 18648.0, 18686.0, 18676.0, 18678.0, 18684.0, 18686.0, 18686.0, 18692.0, 18678.0, 18638.0, 18648.0, 18678.0, 18676.0, 18678.0, 18688.0, 18686.0, 18686.0, 18690.0, 18640.0, 18640.0, 18686.0, 18690.0, 18694.0, 18682.0, 18680.0, 18684.0, 18690.0, 18688.0, 18688.0, 18680.0, 18684.0, 18686.0, 18678.0, 18678.0, 18686.0, 18692.0, 18688.0, 18674.0, 18682.0, 18686.0, 18684.0, 18680.0, 18684.0, 18692.0, 18688.0, 18686.0, 18684.0, 18692.0, 18688.0, 18674.0, 18676.0, 18678.0, 18696.0, 18688.0, 18686.0, 18688.0, 18686.0, 18692.0, 18688.0, 18678.0, 18680.0, 18684.0, 18686.0, 18682.0, 18682.0, 18688.0, 18690.0, 18688.0, 18682.0, 18694.0, 18692.0, 18696.0, 18676.0, 18642.0]
    },
    "slices": {}
  }
}