{
  "AcquisitionMatrixPE": 104,
  "AcquisitionNumber": 1,
  "AcquisitionTime": "18:26:9.312500",
  "BandwidthPerPixelPhaseEncode": 17.17,
  "BaseResolution": 104,
  "BodyPartExamined": "BRAIN",
  "CoilCombinationMethod": "Sum of Squares",
  "ConsistencyInfo": "N4_VE11C_LATEST_20160120",
  "ConversionSoftware": "dcm2niix",
  "ConversionSoftwareVersion": "v1.0.20211006",
  "DerivedVendorReportedEchoSpacing": 0.000560011,
  "DeviceSerialNumber": "167006",
  "DwellTime": 2.1e-06,
  "EchoTime": 0.037,
  "EchoTrainLength": 104,
  "EffectiveEchoSpacing": 0.000560011,
  "FlipAngle": 52,
  "HeudiconvVersion": "0.10.0",
  "ImageComments": "Unaliased MB4/PE3/LB",
  "ImageOrientationPatientDICOM": [0.997722, 0.037357, 0.0561633, -0.0120159, 0.917748, -0.396981],
  "ImageOrientationText": "Tra>Cor(-23.3)>Sag(3.8)",
  "ImageType": [
    "ORIGINAL",
    "PRIMARY",
    "M",
    "MB",
    "ND",
    "MOSAIC"
],
  "ImagingFrequency": 123.259,
  "InPlanePhaseEncodingDirectionDICOM": "COL",
  "InstitutionAddress": "Chemin Queen-Mary 4565,Montreal,District,CA,H3W 1W5",
  "InstitutionName": "IUGM",
  "InstitutionalDepartmentName": "Department",
  "MRAcquisitionType": "2D",
  "MagneticFieldStrength": 3,
  "Manufacturer": "Siemens",
  "ManufacturersModelName": "Prisma_fit",
  "MatrixCoilMode": "SENSE",
  "Modality": "MR",
  "MultibandAccelerationFactor": 4,
  "PartialFourier": 1,
  "PatientPosition": "HFS",
  "PercentPhaseFOV": 100,
  "PercentSampling": 100,
  "PhaseEncodingDirection": "j",
  "PhaseEncodingSteps": 104,
  "PhaseResolution": 1,
  "PixelBandwidth": 2290,
  "ProcedureStepDescription": "games^gamepad",
  "ProtocolName": "func_task-gamepad_run-2",
  "PulseSequenceDetails": "%CustomerSeq%\\cmrr_mbep2d_bold",
  "ReceiveCoilActiveElements": "HC1-7;NC1,2",
  "ReceiveCoilName": "HeadNeck_64",
  "ReconMatrixPE": 104,
  "RepetitionTime": 1.49,
  "SAR": 0.0432369,
  "ScanOptions": "FS",
  "ScanningSequence": "EP",
  "SequenceName": "epfid2d1_104",
  "SequenceVariant": "SK\\SS",
  "SeriesDescription": "func_task-gamepad_run-2",
  "SeriesNumber": 13,
  "ShimSetting": [631, -7190, -8836, 591, 63, 2, -80, -5],
  "SliceThickness": 2,
  "SliceTiming": [0, 0.7825, 0.0975, 0.88, 0.195, 0.98, 0.2925, 1.0775, 0.39, 1.175, 0.49, 1.2725, 0.5875, 1.37, 0.685, 0, 0.7825, 0.0975, 0.88, 0.195, 0.98, 0.2925, 1.0775, 0.39, 1.175, 0.49, 1.2725, 0.5875, 1.37, 0.685, 0, 0.7825, 0.0975, 0.88, 0.195, 0.98, 0.2925, 1.0775, 0.39, 1.175, 0.49, 1.2725, 0.5875, 1.37, 0.685, 0, 0.7825, 0.0975, 0.88, 0.195, 0.98, 0.2925, 1.0775, 0.39, 1.175, 0.49, 1.2725, 0.5875, 1.37, 0.685],
  "SoftwareVersions": "syngo MR E11",
  "SpacingBetweenSlices": 2,
  "StationName": "MRC35049",
  "TaskName": "gamepad",
  "TotalReadoutTime": 0.0576811,
  "TxRefAmp": 263.092,
  "WipMemBlock": "90d8ff67-452c-4ed2-9169-1397c3ac6f5f||Sequence: R016 ve11c/master r/e634e98; Dec 19 2017 11:00:25 by eja",
  "dcmmeta_affine": [
    [-1.995444893836975, -0.024031873792409897, 0.132747620344162, 105.50930786132812],
    [-0.07471401989459991, 1.8354965448379517, -0.7908035516738892, -53.336090087890625],
    [0.11232665926218033, 0.7939615249633789, 1.8322138786315918, -74.24893188476562],
    [0.0, 0.0, 0.0, 1.0]
],
  "dcmmeta_reorient_transform": [
    [0.0, -1.0, 0.0, 103.0],
    [1.0, 0.0, 0.0, 0.0],
    [0.0, 0.0, 1.0, 0.0],
    [0.0, 0.0, 0.0, 1.0]
],
  "dcmmeta_shape": [104, 104, 60, 207],
  "dcmmeta_slice_dim": 2,
  "dcmmeta_version": 0.6,
  "global": {
    "const": {
      "AcquisitionMatrix": [104, 0, 0, 104],
      "AngioFlag": "N",
      "BitsAllocated": 16,
      "BitsStored": 16,
      "BodyPartExamined": "BRAIN",
      "Columns": 832,
      "EchoNumbers": 1,
      "EchoTime": 37.0,
      "EchoTrainLength": 104,
      "FlipAngle": 52.0,
      "HighBit": 15,
      "ImageOrientationPatient": [0.99772247355204, 0.03735701065631, 0.05616332899706, -0.012015937282, 0.91774827145706, -0.3969807646333],
      "ImagePositionPatient": [-820.62838050027, -831.03669765412, 255.64420145056],
      "ImageType": [
        "ORIGINAL",
        "PRIMARY",
        "M",
        "MB",
        "ND",
        "MOSAIC"
],
      "ImagedNucleus": "1H",
      "ImagingFrequency": 123.258919,
      "InPlanePhaseEncodingDirection": "COL",
      "MRAcquisitionType": "2D",
      "MagneticFieldStrength": 3.0,
      "Manufacturer": "SIEMENS",
      "ManufacturerModelName": "Prisma_fit",
      "Modality": "MR",
      "NumberOfAverages": 1.0,
      "NumberOfPhaseEncodingSteps": 104,
      "PercentPhaseFieldOfView": 100.0,
      "PercentSampling": 100.0,
      "PerformedProcedureStepStartTime": "181215.814000",
      "PhotometricInterpretation": "MONOCHROME2",
      "PixelBandwidth": 2290.0,
      "PixelRepresentation": 0,
      "PixelSpacing": [2.0, 2.0],
      "ProtocolName": "func_task-gamepad_run-2",
      "RepetitionTime": 1490.0,
      "Rows": 832,
      "SAR": 0.04323685270226,
      "SamplesPerPixel": 1,
      "ScanOptions": "FS",
      "ScanningSequence": "EP",
      "SequenceName": "epfid2d1_104",
      "SequenceVariant": [
        "SK",
        "SS"
],
      "SeriesDescription": "func_task-gamepad_run-2",
      "SeriesNumber": 13,
      "SeriesTime": "182719.631000",
      "SliceLocation": -39.927720251755,
      "SliceThickness": 2.0,
      "SmallestImagePixelValue": 0,
      "SoftwareVersions": "syngo MR E11",
      "SpacingBetweenSlices": 1.9999999949892,
      "SpecificCharacterSet": "ISO_IR 100",
      "StudyID": "1",
      "StudyTime": "181215.736000",
      "TransmitCoilName": "Body",
      "VariableFlipAngleFlag": "N",
      "WindowCenterWidthExplanation": "Algo1",
      "dBdt": 0.0},
    "slices": {}
  },
  "time": {
    "samples": {
      "AcquisitionNumber": [1, 2, 3, 4, 5, 6, 7, 8, 9, 10, 11, 12, 13, 14, 15, 16, 17, 18, 19, 20, 21, 22, 23, 24, 25, 26, 27, 28, 29, 30, 31, 32, 33, 34, 35, 36, 37, 38, 39, 40, 41, 42, 43, 44, 45, 46, 47, 48, 49, 50, 51, 52, 53, 54, 55, 56, 57, 58, 59, 60, 61, 62, 63, 64, 65, 66, 67, 68, 69, 70, 71, 72, 73, 74, 75, 76, 77, 78, 79, 80, 81, 82, 83, 84, 85, 86, 87, 88, 89, 90, 91, 92, 93, 94, 95, 96, 97, 98, 99, 100, 101, 102, 103, 104, 105, 106, 107, 108, 109, 110, 111, 112, 113, 114, 115, 116, 117, 118, 119, 120, 121, 122, 123, 124, 125, 126, 127, 128, 129, 130, 131, 132, 133, 134, 135, 136, 137, 138, 139, 140, 141, 142, 143, 144, 145, 146, 147, 148, 149, 150, 151, 152, 153, 154, 155, 156, 157, 158, 159, 160, 161, 162, 163, 164, 165, 166, 167, 168, 169, 170, 171, 172, 173, 174, 175, 176, 177, 178, 179, 180, 181, 182, 183, 184, 185, 186, 187, 188, 189, 190, 191, 192, 193, 194, 195, 196, 197, 198, 199, 200, 201, 202, 203, 204, 205, 206, 207],
      "AcquisitionTime": ["182609.312500", "182610.802500", "182612.292500", "182613.782500", "182615.272500", "182616.762500", "182618.252500", "182619.742500", "182621.232500", "182622.722500", "182624.212500", "182625.702500", "182627.192500", "182628.682500", "182630.172500", "182631.662500", "182633.152500", "182634.642500", "182636.132500", "182637.622500", "182639.112500", "182640.602500", "182642.092500", "182643.582500", "182645.072500", "182646.562500", "182648.052500", "182649.542500", "182651.032500", "182652.522500", "182654.012500", "182655.502500", "182656.992500", "182658.482500", "182659.972500", "182701.462500", "182702.952500", "182704.442500", "182705.932500", "182707.422500", "182708.912500", "182710.402500", "182711.892500", "182713.382500", "182714.872500", "182716.362500", "182717.852500", "182719.342500", "182720.832500", "182722.322500", "182723.812500", "182725.302500", "182726.792500", "182728.282500", "182729.772500", "182731.262500", "182732.752500", "182734.242500", "182735.732500", "182737.222500", "182738.712500", "182740.202500", "182741.692500", "182743.182500", "182744.672500", "182746.162500", "182747.652500", "182749.142500", "182750.632500", "182752.122500", "182753.612500", "182755.102500", "182756.592500", "182758.082500", "182759.572500", "182801.062500", "182802.552500", "182804.042500", "182805.532500", "182807.022500", "182808.512500", "182810.002500", "182811.492500", "182812.982500", "182814.472500", "182815.962500", "182817.452500", "182818.942500", "182820.432500", "182821.922500", "182823.412500", "182824.902500", "182826.392500", "182827.882500", "182829.372500", "182830.862500", "182832.352500", "182833.842500", "182835.332500", "182836.822500", "182838.312500", "182839.802500", "182841.292500", "182842.782500", "182844.272500", "182845.762500", "182847.252500", "182848.742500", "182850.232500", "182851.722500", "182853.212500", "182854.702500", "182856.192500", "182857.682500", "182859.172500", "182900.662500", "182902.152500", "182903.642500", "182905.132500", "182906.622500", "182908.112500", "182909.602500", "182911.092500", "182912.582500", "182914.072500", "182915.562500", "182917.052500", "182918.542500", "182920.032500", "182921.522500", "182923.012500", "182924.502500", "182925.992500", "182927.482500", "182928.972500", "182930.462500", "182931.952500", "182933.442500", "182934.932500", "182936.422500", "182937.912500", "182939.402500", "182940.892500", "182942.382500", "182943.872500", "182945.362500", "182946.852500", "182948.342500", "182949.832500", "182951.322500", "182952.812500", "182954.302500", "182955.792500", "182957.282500", "182958.772500", "183000.262500", "183001.752500", "183003.242500", "183004.732500", "183006.222500", "183007.712500", "183009.202500", "183010.692500", "183012.182500", "183013.672500", "183015.162500", "183016.652500", "183018.142500", "183019.632500", "183021.122500", "183022.612500", "183024.102500", "183025.592500", "183027.082500", "183028.572500", "183030.062500", "183031.552500", "183033.042500", "183034.532500", "183036.022500", "183037.512500", "183039.002500", "183040.492500", "183041.982500", "183043.472500", "183044.962500", "183046.452500", "183047.942500", "183049.432500", "183050.922500", "183052.412500", "183053.902500", "183055.392500", "183056.882500", "183058.372500", "183059.862500", "183101.352500", "183102.842500", "183104.332500", "183105.822500", "183107.312500", "183108.802500", "183110.292500", "183111.782500", "183113.272500", "183114.762500", "183116.252500"],
      "ContentTime": ["182719.634000", "182719.638000", "182719.642000", "182719.645000", "182719.648000", "182719.652000", "182719.655000", "182719.658000", "182719.662000", "182719.665000", "182719.668000", "182719.671000", "182719.675000", "182719.678000", "182719.681000", "182719.685000", "182719.688000", "182739.601000", "182739.605000", "182739.608000", "182739.620000", "182739.623000", "182739.627000", "182739.630000", "182739.633000", "182739.636000", "182739.640000", "182739.643000", "182739.647000", "182739.651000", "182739.654000", "182739.657000", "182739.660000", "182739.664000", "182739.667000", "182739.671000", "182739.674000", "182739.677000", "182759.601000", "182759.605000", "182759.608000", "182759.611000", "182759.615000", "182759.618000", "182759.621000", "182759.624000", "182759.628000", "182759.631000", "182759.634000", "182759.638000", "182759.641000", "182759.653000", "182759.656000", "182759.660000", "182759.663000", "182759.667000", "182759.670000", "182759.673000", "182819.601000", "182819.605000", "182819.608000", "182819.611000", "182819.615000", "182819.618000", "182819.621000", "182819.624000", "182819.628000", "182819.631000", "182819.634000", "182819.638000", "182819.641000", "182819.644000", "182819.648000", "182819.651000", "182819.654000", "182819.658000", "182819.661000", "182819.664000", "182839.601000", "182839.605000", "182839.608000", "182839.611000", "182839.615000", "182839.618000", "182839.621000", "182839.624000", "182839.628000", "182839.631000", "182839.635000", "182839.638000", "182839.641000", "182839.644000", "182839.648000", "182839.651000", "182839.654000", "182839.658000", "182839.661000", "182839.665000", "182919.602000", "182919.606000", "182919.609000", "182919.612000", "182919.616000", "182919.619000", "182919.622000", "182919.626000", "182919.629000", "182919.632000", "182919.635000", "182919.639000", "182919.642000", "182919.645000", "182919.649000", "182919.652000", "182919.655000", "182919.659000", "182919.662000", "182919.665000", "182919.668000", "182919.672000", "182919.675000", "182919.678000", "182919.682000", "182919.685000", "182919.688000", "182919.692000", "182919.695000", "182959.601000", "182959.605000", "182959.608000", "182959.612000", "182959.615000", "182959.618000", "182959.622000", "182959.625000", "182959.628000", "182959.632000", "182959.635000", "182959.638000", "182959.642000", "182959.654000", "182959.657000", "182959.661000", "182959.664000", "182959.667000", "182959.671000", "182959.674000", "182959.677000", "182959.681000", "182959.684000", "182959.687000", "182959.691000", "182959.694000", "182959.697000", "183039.601000", "183039.605000", "183039.608000", "183039.612000", "183039.615000", "183039.618000", "183039.622000", "183039.625000", "183039.628000", "183039.632000", "183039.635000", "183039.638000", "183039.642000", "183039.645000", "183039.649000", "183039.652000", "183039.655000", "183039.659000", "183039.662000", "183039.666000", "183039.669000", "183039.672000", "183039.676000", "183039.679000", "183039.682000", "183039.685000", "183118.442000", "183118.445000", "183118.449000", "183118.452000", "183118.456000", "183118.459000", "183118.462000", "183118.466000", "183118.469000", "183118.472000", "183118.476000", "183118.479000", "183118.482000", "183118.486000", "183118.489000", "183118.492000", "183118.496000", "183118.499000", "183118.502000", "183118.506000", "183118.509000", "183118.512000", "183118.516000", "183118.519000", "183118.522000", "183118.526000", "183118.529000"],
      "InstanceCreationTime": ["182719.634000", "182719.638000", "182719.642000", "182719.645000", "182719.648000", "182719.652000", "182719.655000", "182719.658000", "182719.662000", "182719.665000", "182719.668000", "182719.671000", "182719.675000", "182719.678000", "182719.681000", "182719.685000", "182719.688000", "182739.601000", "182739.605000", "182739.608000", "182739.620000", "182739.623000", "182739.627000", "182739.630000", "182739.633000", "182739.636000", "182739.640000", "182739.643000", "182739.647000", "182739.651000", "182739.654000", "182739.657000", "182739.660000", "182739.664000", "182739.667000", "182739.671000", "182739.674000", "182739.677000", "182759.601000", "182759.605000", "182759.608000", "182759.611000", "182759.615000", "182759.618000", "182759.621000", "182759.624000", "182759.628000", "182759.631000", "182759.634000", "182759.638000", "182759.641000", "182759.653000", "182759.656000", "182759.660000", "182759.663000", "182759.667000", "182759.670000", "182759.673000", "182819.601000", "182819.605000", "182819.608000", "182819.611000", "182819.615000", "182819.618000", "182819.621000", "182819.624000", "182819.628000", "182819.631000", "182819.634000", "182819.638000", "182819.641000", "182819.644000", "182819.648000", "182819.651000", "182819.654000", "182819.658000", "182819.661000", "182819.664000", "182839.601000", "182839.605000", "182839.608000", "182839.611000", "182839.615000", "182839.618000", "182839.621000", "182839.624000", "182839.628000", "182839.631000", "182839.635000", "182839.638000", "182839.641000", "182839.644000", "182839.648000", "182839.651000", "182839.654000", "182839.658000", "182839.661000", "182839.665000", "182919.602000", "182919.606000", "182919.609000", "182919.612000", "182919.616000", "182919.619000", "182919.622000", "182919.626000", "182919.629000", "182919.632000", "182919.635000", "182919.639000", "182919.642000", "182919.645000", "182919.649000", "182919.652000", "182919.655000", "182919.659000", "182919.662000", "182919.665000", "182919.668000", "182919.672000", "182919.675000", "182919.678000", "182919.682000", "182919.685000", "182919.688000", "182919.692000", "182919.695000", "182959.601000", "182959.605000", "182959.608000", "182959.612000", "182959.615000", "182959.618000", "182959.622000", "182959.625000", "182959.628000", "182959.632000", "182959.635000", "182959.638000", "182959.642000", "182959.654000", "182959.657000", "182959.661000", "182959.664000", "182959.667000", "182959.671000", "182959.674000", "182959.677000", "182959.681000", "182959.684000", "182959.687000", "182959.691000", "182959.694000", "182959.697000", "183039.601000", "183039.605000", "183039.608000", "183039.612000", "183039.615000", "183039.618000", "183039.622000", "183039.625000", "183039.628000", "183039.632000", "183039.635000", "183039.638000", "183039.642000", "183039.645000", "183039.649000", "183039.652000", "183039.655000", "183039.659000", "183039.662000", "183039.666000", "183039.669000", "183039.672000", "183039.676000", "183039.679000", "183039.682000", "183039.685000", "183118.442000", "183118.445000", "183118.449000", "183118.452000", "183118.456000", "183118.459000", "183118.462000", "183118.466000", "183118.469000", "183118.472000", "183118.476000", "183118.479000", "183118.482000", "183118.486000", "183118.489000", "183118.492000", "183118.496000", "183118.499000", "183118.502000", "183118.506000", "183118.509000", "183118.512000", "183118.516000", "183118.519000", "183118.522000", "183118.526000", "183118.529000"],
      "InstanceNumber": [1, 2, 3, 4, 5, 6, 7, 8, 9, 10, 11, 12, 13, 14, 15, 16, 17, 18, 19, 20, 21, 22, 23, 24, 25, 26, 27, 28, 29, 30, 31, 32, 33, 34, 35, 36, 37, 38, 39, 40, 41, 42, 43, 44, 45, 46, 47, 48, 49, 50, 51, 52, 53, 54, 55, 56, 57, 58, 59, 60, 61, 62, 63, 64, 65, 66, 67, 68, 69, 70, 71, 72, 73, 74, 75, 76, 77, 78, 79, 80, 81, 82, 83, 84, 85, 86, 87, 88, 89, 90, 91, 92, 93, 94, 95, 96, 97, 98, 99, 100, 101, 102, 103, 104, 105, 106, 107, 108, 109, 110, 111, 112, 113, 114, 115, 116, 117, 118, 119, 120, 121, 122, 123, 124, 125, 126, 127, 128, 129, 130, 131, 132, 133, 134, 135, 136, 137, 138, 139, 140, 141, 142, 143, 144, 145, 146, 147, 148, 149, 150, 151, 152, 153, 154, 155, 156, 157, 158, 159, 160, 161, 162, 163, 164, 165, 166, 167, 168, 169, 170, 171, 172, 173, 174, 175, 176, 177, 178, 179, 180, 181, 182, 183, 184, 185, 186, 187, 188, 189, 190, 191, 192, 193, 194, 195, 196, 197, 198, 199, 200, 201, 202, 203, 204, 205, 206, 207],
      "LargestImagePixelValue": [42569, 42084, 40788, 40726, 40126, 41080, 41335, 40653, 40840, 39828, 39657, 40939, 40347, 39973, 40106, 40843, 41268, 40682, 40449, 39025, 39440, 40565, 42228, 41800, 41061, 39400, 38953, 40640, 40586, 39696, 40550, 38464, 39389, 40690, 40376, 39241, 38707, 40402, 40543, 39334, 38737, 39199, 39938, 39858, 38646, 38731, 40008, 39580, 41707, 38814, 38771, 39792, 39853, 40126, 39381, 39908, 40360, 39980, 39358, 39950, 40124, 39841, 39050, 39135, 39628, 40211, 39721, 39917, 39077, 38944, 39728, 39620, 39324, 39314, 38903, 38868, 39122, 39515, 39468, 38694, 38749, 38747, 39433, 39350, 38974, 38889, 38648, 38932, 38828, 38512, 38608, 38411, 41243, 39073, 38615, 38618, 40091, 39009, 40805, 38950, 39591, 39121, 38985, 38522, 39477, 39747, 38763, 38700, 39347, 39540, 38989, 38693, 38937, 38873, 38711, 42794, 38653, 38681, 38830, 40557, 41942, 41253, 40258, 40022, 38975, 40519, 39437, 40276, 40110, 39797, 39479, 40288, 40400, 39828, 39179, 40260, 40081, 39557, 39659, 40038, 41961, 41326, 40226, 39674, 39951, 39869, 39932, 41365, 40692, 39957, 40661, 40064, 39191, 39187, 39085, 39102, 40374, 39053, 38988, 39089, 39612, 39533, 39205, 39268, 39217, 39524, 39521, 41226, 39469, 39991, 39769, 39455, 39297, 39606, 39484, 39985, 39801, 39735, 39873, 39636, 39588, 39632, 39900, 40051, 40441, 41446, 39639, 39433, 40538, 39859, 38990, 40009, 39613, 39824, 41551, 40303, 39632, 41103, 40699, 39836, 40043, 40453, 41546, 39842, 39810, 39811, 39641],
      "WindowCenter": [10514.0, 10464.0, 10425.0, 10424.0, 10438.0, 10476.0, 10477.0, 10444.0, 10429.0, 10411.0, 10419.0, 10443.0, 10427.0, 10416.0, 10417.0, 10445.0, 10455.0, 10434.0, 10416.0, 10404.0, 10421.0, 10459.0, 10464.0, 10439.0, 10418.0, 10411.0, 10423.0, 10456.0, 10448.0, 10410.0, 10409.0, 10389.0, 10416.0, 10453.0, 10443.0, 10424.0, 10424.0, 10443.0, 10447.0, 10420.0, 10411.0, 10433.0, 10453.0, 10445.0, 10420.0, 10423.0, 10426.0, 10419.0, 10434.0, 10408.0, 10423.0, 10445.0, 10444.0, 10436.0, 10429.0, 10442.0, 10452.0, 10445.0, 10439.0, 10462.0, 10462.0, 10446.0, 10425.0, 10432.0, 10446.0, 10449.0, 10427.0, 10414.0, 10411.0, 10439.0, 10463.0, 10438.0, 10402.0, 10380.0, 10383.0, 10402.0, 10429.0, 10428.0, 10404.0, 10385.0, 10384.0, 10400.0, 10424.0, 10428.0, 10420.0, 10418.0, 10413.0, 10422.0, 10417.0, 10410.0, 10425.0, 10424.0, 10456.0, 10412.0, 10398.0, 10412.0, 10447.0, 10440.0, 10456.0, 10431.0, 10425.0, 10420.0, 10411.0, 10401.0, 10412.0, 10410.0, 10397.0, 10406.0, 10434.0, 10446.0, 10424.0, 10406.0, 10412.0, 10398.0, 10395.0, 10434.0, 10387.0, 10402.0, 10425.0, 10455.0, 10446.0, 10414.0, 10393.0, 10401.0, 10408.0, 10427.0, 10409.0, 10397.0, 10370.0, 10358.0, 10366.0, 10405.0, 10426.0, 10411.0, 10411.0, 10423.0, 10417.0, 10411.0, 10428.0, 10453.0, 10476.0, 10444.0, 10405.0, 10398.0, 10413.0, 10432.0, 10427.0, 10435.0, 10432.0, 10432.0, 10438.0, 10408.0, 10410.0, 10420.0, 10430.0, 10432.0, 10421.0, 10385.0, 10390.0, 10420.0, 10454.0, 10449.0, 10421.0, 10408.0, 10408.0, 10431.0, 10437.0, 10461.0, 10430.0, 10448.0, 10435.0, 10420.0, 10417.0, 10431.0, 10442.0, 10441.0, 10426.0, 10424.0, 10422.0, 10422.0, 10424.0, 10439.0, 10448.0, 10438.0, 10430.0, 10438.0, 10422.0, 10408.0, 10414.0, 10410.0, 10415.0, 10431.0, 10415.0, 10403.0, 10427.0, 10433.0, 10432.0, 10441.0, 10436.0, 10434.0, 10441.0, 10437.0, 10455.0, 10447.0, 10443.0, 10423.0, 10396.0],
      "WindowWidth": [22342.0, 22209.0, 22116.0, 22111.0, 22144.0, 22228.0, 22226.0, 22146.0, 22110.0, 22074.0, 22092.0, 22143.0, 22113.0, 22085.0, 22086.0, 22149.0, 22175.0, 22128.0, 22085.0, 22064.0, 22104.0, 22195.0, 22193.0, 22135.0, 22091.0, 22081.0, 22111.0, 22178.0, 22159.0, 22074.0, 22066.0, 22033.0, 22092.0, 22172.0, 22152.0, 22115.0, 22113.0, 22152.0, 22158.0, 22100.0, 22085.0, 22133.0, 22179.0, 22157.0, 22106.0, 22111.0, 22115.0, 22098.0, 22132.0, 22079.0, 22111.0, 22163.0, 22157.0, 22137.0, 22122.0, 22151.0, 22175.0, 22162.0, 22147.0, 22200.0, 22203.0, 22162.0, 22114.0, 22129.0, 22160.0, 22165.0, 22120.0, 22084.0, 22084.0, 22146.0, 22200.0, 22139.0, 22056.0, 22000.0, 22013.0, 22059.0, 22124.0, 22119.0, 22063.0, 22018.0, 22015.0, 22053.0, 22110.0, 22120.0, 22102.0, 22092.0, 22085.0, 22105.0, 22095.0, 22081.0, 22112.0, 22115.0, 22183.0, 22082.0, 22054.0, 22084.0, 22164.0, 22152.0, 22183.0, 22122.0, 22107.0, 22097.0, 22077.0, 22058.0, 22081.0, 22076.0, 22049.0, 22069.0, 22135.0, 22161.0, 22110.0, 22064.0, 22081.0, 22049.0, 22036.0, 22120.0, 22027.0, 22059.0, 22117.0, 22171.0, 22146.0, 22074.0, 22030.0, 22050.0, 22070.0, 22106.0, 22069.0, 22040.0, 21976.0, 21950.0, 21968.0, 22060.0, 22109.0, 22078.0, 22077.0, 22104.0, 22091.0, 22079.0, 22114.0, 22175.0, 22218.0, 22144.0, 22059.0, 22044.0, 22077.0, 22125.0, 22110.0, 22120.0, 22116.0, 22123.0, 22135.0, 22070.0, 22074.0, 22101.0, 22121.0, 22130.0, 22091.0, 22017.0, 22028.0, 22100.0, 22179.0, 22169.0, 22099.0, 22066.0, 22068.0, 22124.0, 22139.0, 22190.0, 22123.0, 22160.0, 22134.0, 22101.0, 22092.0, 22122.0, 22150.0, 22144.0, 22108.0, 22105.0, 22103.0, 22103.0, 22107.0, 22142.0, 22164.0, 22138.0, 22120.0, 22128.0, 22099.0, 22069.0, 22075.0, 22069.0, 22086.0, 22122.0, 22083.0, 22054.0, 22105.0, 22126.0, 22128.0, 22143.0, 22133.0, 22136.0, 22154.0, 22137.0, 22165.0, 22155.0, 22152.0, 22102.0, 22039.0]
    },
    "slices": {}
  }
}