{
  "AcquisitionMatrixPE": 104,
  "AcquisitionNumber": 1,
  "AcquisitionTime": "18:08:25.960000",
  "B0FieldSource": "sub-01_ses-001_task-gamepad_run-01_part-mag_bold.nii.gz",
  "BandwidthPerPixelPhaseEncode": 17.17,
  "BaseResolution": 104,
  "BodyPartExamined": "BRAIN",
  "CoilCombinationMethod": "Sum of Squares",
  "ConsistencyInfo": "N4_VE11C_LATEST_20160120",
  "ConversionSoftware": "dcm2niix",
  "ConversionSoftwareVersion": "v1.0.20211006",
  "DerivedVendorReportedEchoSpacing": 0.000560011,
  "DeviceSerialNumber": "167006",
  "DwellTime": 2.1e-06,
  "EchoTime": 0.037,
  "EchoTrainLength": 104,
  "EffectiveEchoSpacing": 0.000560011,
  "FlipAngle": 52,
  "HeudiconvVersion": "0.10.0",
  "ImageComments": "Unaliased MB4/PE3/LB",
  "ImageOrientationPatientDICOM": [0.997638, 0.0541725, 0.042233, -0.0323979, 0.913247, -0.406116],
  "ImageOrientationText": "Tra>Cor(-23.9)>Sag(3.5)",
  "ImageType": [
    "ORIGINAL",
    "PRIMARY",
    "M",
    "MB",
    "ND",
    "MOSAIC"
],
  "ImagingFrequency": 123.259,
  "InPlanePhaseEncodingDirectionDICOM": "COL",
  "InstitutionAddress": "Chemin Queen-Mary 4565,Montreal,District,CA,H3W 1W5",
  "InstitutionName": "IUGM",
  "InstitutionalDepartmentName": "Department",
  "MRAcquisitionType": "2D",
  "MagneticFieldStrength": 3,
  "Manufacturer": "Siemens",
  "ManufacturersModelName": "Prisma_fit",
  "MatrixCoilMode": "SENSE",
  "Modality": "MR",
  "MultibandAccelerationFactor": 4,
  "PartialFourier": 1,
  "PatientPosition": "HFS",
  "PercentPhaseFOV": 100,
  "PercentSampling": 100,
  "PhaseEncodingDirection": "j",
  "PhaseEncodingSteps": 104,
  "PhaseResolution": 1,
  "PixelBandwidth": 2290,
  "ProcedureStepDescription": "games^gamepad",
  "ProtocolName": "func_task-gamepad_run-1",
  "PulseSequenceDetails": "%CustomerSeq%\\cmrr_mbep2d_bold",
  "ReceiveCoilActiveElements": "HC1-7;NC1,2",
  "ReceiveCoilName": "HeadNeck_64",
  "ReconMatrixPE": 104,
  "RepetitionTime": 1.49,
  "SAR": 0.0386996,
  "ScanOptions": "FS",
  "ScanningSequence": "EP",
  "SequenceName": "epfid2d1_104",
  "SequenceVariant": "SK\\SS",
  "SeriesDescription": "func_task-gamepad_run-1",
  "SeriesNumber": 10,
  "ShimSetting": [626, -7176, -8835, 602, 55, 12, -95, 14],
  "SliceThickness": 2,
  "SliceTiming": [0, 0.785, 0.1, 0.8825, 0.1975, 0.98, 0.295, 1.08, 0.3925, 1.1775, 0.49, 1.275, 0.59, 1.3725, 0.6875, 0, 0.785, 0.1, 0.8825, 0.1975, 0.98, 0.295, 1.08, 0.3925, 1.1775, 0.49, 1.275, 0.59, 1.3725, 0.6875, 0, 0.785, 0.1, 0.8825, 0.1975, 0.98, 0.295, 1.08, 0.3925, 1.1775, 0.49, 1.275, 0.59, 1.3725, 0.6875, 0, 0.785, 0.1, 0.8825, 0.1975, 0.98, 0.295, 1.08, 0.3925, 1.1775, 0.49, 1.275, 0.59, 1.3725, 0.6875],
  "SoftwareVersions": "syngo MR E11",
  "SpacingBetweenSlices": 2,
  "StationName": "MRC35049",
  "TaskName": "gamepad",
  "TotalReadoutTime": 0.0576811,
  "TxRefAmp": 252.981,
  "WipMemBlock": "dc21d82c-3070-45dc-aadc-b3b70169de95||Sequence: R016 ve11c/master r/e634e98; Dec 19 2017 11:00:25 by eja",
  "dcmmeta_affine": [
    [-1.9952760934829712, -0.06479577720165253, 0.12113899737596512, 107.32513427734375],
    [-0.10834495723247528, 1.8264944553375244, -0.8075762391090393, -50.63606643676758],
    [0.08446609228849411, 0.812231183052063, 1.825690507888794, -70.62541961669922],
    [0.0, 0.0, 0.0, 1.0]
],
  "dcmmeta_reorient_transform": [
    [0.0, -1.0, 0.0, 103.0],
    [1.0, 0.0, 0.0, 0.0],
    [0.0, 0.0, 1.0, 0.0],
    [0.0, 0.0, 0.0, 1.0]
],
  "dcmmeta_shape": [104, 104, 60, 207],
  "dcmmeta_slice_dim": 2,
  "dcmmeta_version": 0.6,
  "global": {
    "const": {
      "AcquisitionMatrix": [104, 0, 0, 104],
      "AngioFlag": "N",
      "BitsAllocated": 16,
      "BitsStored": 16,
      "BodyPartExamined": "BRAIN",
      "Columns": 832,
      "EchoNumbers": 1,
      "EchoTime": 37.0,
      "EchoTrainLength": 104,
      "FlipAngle": 52.0,
      "HighBit": 15,
      "ImageOrientationPatient": [0.99763806693048, 0.05417247714834, 0.04223304548369, -0.032397887641, 0.9132472270109, -0.4061155983625],
      "ImagePositionPatient": [-803.34602312502, -841.77440800233, 277.94089488077],
      "ImageType": [
        "ORIGINAL",
        "PRIMARY",
        "M",
        "MB",
        "ND",
        "MOSAIC"
],
      "ImagedNucleus": "1H",
      "ImagingFrequency": 123.25893,
      "InPlanePhaseEncodingDirection": "COL",
      "MRAcquisitionType": "2D",
      "MagneticFieldStrength": 3.0,
      "Manufacturer": "SIEMENS",
      "ManufacturerModelName": "Prisma_fit",
      "Modality": "MR",
      "NumberOfAverages": 1.0,
      "NumberOfPhaseEncodingSteps": 104,
      "PercentPhaseFieldOfView": 100.0,
      "PercentSampling": 100.0,
      "PerformedProcedureStepStartTime": "180350.649000",
      "PhotometricInterpretation": "MONOCHROME2",
      "PixelBandwidth": 2290.0,
      "PixelRepresentation": 0,
      "PixelSpacing": [2.0, 2.0],
      "ProtocolName": "func_task-gamepad_run-1",
      "RepetitionTime": 1490.0,
      "Rows": 832,
      "SAR": 0.03869959523926,
      "SamplesPerPixel": 1,
      "ScanOptions": "FS",
      "ScanningSequence": "EP",
      "SequenceName": "epfid2d1_104",
      "SequenceVariant": [
        "SK",
        "SS"
],
      "SeriesDescription": "func_task-gamepad_run-1",
      "SeriesNumber": 10,
      "SeriesTime": "180941.547000",
      "SliceLocation": -37.523206406037,
      "SliceThickness": 2.0,
      "SmallestImagePixelValue": 0,
      "SoftwareVersions": "syngo MR E11",
      "SpacingBetweenSlices": 1.9999999487198,
      "SpecificCharacterSet": "ISO_IR 100",
      "StudyID": "1",
      "StudyTime": "180350.558000",
      "TransmitCoilName": "Body",
      "VariableFlipAngleFlag": "N",
      "WindowCenterWidthExplanation": "Algo1",
      "dBdt": 0.0},
    "slices": {}
  },
  "time": {
    "samples": {
      "AcquisitionNumber": [1, 2, 3, 4, 5, 6, 7, 8, 9, 10, 11, 12, 13, 14, 15, 16, 17, 18, 19, 20, 21, 22, 23, 24, 25, 26, 27, 28, 29, 30, 31, 32, 33, 34, 35, 36, 37, 38, 39, 40, 41, 42, 43, 44, 45, 46, 47, 48, 49, 50, 51, 52, 53, 54, 55, 56, 57, 58, 59, 60, 61, 62, 63, 64, 65, 66, 67, 68, 69, 70, 71, 72, 73, 74, 75, 76, 77, 78, 79, 80, 81, 82, 83, 84, 85, 86, 87, 88, 89, 90, 91, 92, 93, 94, 95, 96, 97, 98, 99, 100, 101, 102, 103, 104, 105, 106, 107, 108, 109, 110, 111, 112, 113, 114, 115, 116, 117, 118, 119, 120, 121, 122, 123, 124, 125, 126, 127, 128, 129, 130, 131, 132, 133, 134, 135, 136, 137, 138, 139, 140, 141, 142, 143, 144, 145, 146, 147, 148, 149, 150, 151, 152, 153, 154, 155, 156, 157, 158, 159, 160, 161, 162, 163, 164, 165, 166, 167, 168, 169, 170, 171, 172, 173, 174, 175, 176, 177, 178, 179, 180, 181, 182, 183, 184, 185, 186, 187, 188, 189, 190, 191, 192, 193, 194, 195, 196, 197, 198, 199, 200, 201, 202, 203, 204, 205, 206, 207],
      "AcquisitionTime": ["180825.960000", "180827.450000", "180828.940000", "180830.430000", "180831.920000", "180833.410000", "180834.900000", "180836.390000", "180837.880000", "180839.370000", "180840.860000", "180842.350000", "180843.840000", "180845.330000", "180846.820000", "180848.310000", "180849.800000", "180851.290000", "180852.780000", "180854.270000", "180855.760000", "180857.250000", "180858.740000", "180900.230000", "180901.720000", "180903.210000", "180904.700000", "180906.190000", "180907.680000", "180909.170000", "180910.660000", "180912.150000", "180913.640000", "180915.130000", "180916.620000", "180918.110000", "180919.600000", "180921.090000", "180922.580000", "180924.070000", "180925.560000", "180927.050000", "180928.540000", "180930.030000", "180931.520000", "180933.010000", "180934.500000", "180935.990000", "180937.480000", "180938.970000", "180940.460000", "180941.950000", "180943.440000", "180944.930000", "180946.420000", "180947.910000", "180949.400000", "180950.890000", "180952.380000", "180953.870000", "180955.360000", "180956.850000", "180958.340000", "180959.830000", "181001.320000", "181002.810000", "181004.300000", "181005.790000", "181007.280000", "181008.770000", "181010.260000", "181011.750000", "181013.240000", "181014.730000", "181016.220000", "181017.710000", "181019.200000", "181020.690000", "181022.180000", "181023.670000", "181025.160000", "181026.650000", "181028.140000", "181029.630000", "181031.120000", "181032.610000", "181034.100000", "181035.590000", "181037.080000", "181038.570000", "181040.060000", "181041.550000", "181043.040000", "181044.530000", "181046.020000", "181047.510000", "181049.000000", "181050.490000", "181051.980000", "181053.470000", "181054.960000", "181056.450000", "181057.940000", "181059.430000", "181100.920000", "181102.410000", "181103.900000", "181105.390000", "181106.880000", "181108.370000", "181109.860000", "181111.350000", "181112.840000", "181114.330000", "181115.820000", "181117.310000", "181118.800000", "181120.290000", "181121.780000", "181123.270000", "181124.760000", "181126.250000", "181127.740000", "181129.230000", "181130.720000", "181132.210000", "181133.700000", "181135.190000", "181136.680000", "181138.170000", "181139.660000", "181141.150000", "181142.640000", "181144.130000", "181145.620000", "181147.110000", "181148.600000", "181150.090000", "181151.580000", "181153.070000", "181154.560000", "181156.050000", "181157.540000", "181159.030000", "181200.520000", "181202.010000", "181203.500000", "181204.990000", "181206.480000", "181207.970000", "181209.460000", "181210.950000", "181212.440000", "181213.930000", "181215.420000", "181216.910000", "181218.400000", "181219.890000", "181221.380000", "181222.870000", "181224.360000", "181225.850000", "181227.340000", "181228.830000", "181230.320000", "181231.810000", "181233.300000", "181234.790000", "181236.280000", "181237.770000", "181239.260000", "181240.750000", "181242.240000", "181243.730000", "181245.220000", "181246.710000", "181248.200000", "181249.690000", "181251.180000", "181252.670000", "181254.160000", "181255.650000", "181257.140000", "181258.630000", "181300.120000", "181301.610000", "181303.100000", "181304.590000", "181306.080000", "181307.570000", "181309.060000", "181310.550000", "181312.040000", "181313.530000", "181315.020000", "181316.510000", "181318.000000", "181319.490000", "181320.980000", "181322.470000", "181323.960000", "181325.450000", "181326.940000", "181328.430000", "181329.920000", "181331.410000", "181332.900000"],
      "ContentTime": ["180941.550000", "180941.560000", "180941.564000", "180941.567000", "180941.570000", "180941.573000", "180941.577000", "180941.580000", "180941.583000", "180941.587000", "180941.590000", "180941.593000", "180941.597000", "180941.600000", "180941.603000", "180941.607000", "180941.610000", "180941.623000", "180941.626000", "180941.629000", "181001.518000", "181001.522000", "181001.525000", "181001.528000", "181001.532000", "181001.535000", "181001.538000", "181001.542000", "181001.545000", "181001.549000", "181001.552000", "181001.555000", "181001.559000", "181001.562000", "181001.565000", "181001.569000", "181001.572000", "181001.575000", "181001.579000", "181001.582000", "181021.517000", "181021.528000", "181021.531000", "181021.534000", "181021.555000", "181021.559000", "181021.562000", "181021.566000", "181021.569000", "181021.572000", "181021.576000", "181021.579000", "181021.582000", "181021.586000", "181021.589000", "181021.592000", "181021.596000", "181021.599000", "181021.602000", "181021.606000", "181021.609000", "181041.517000", "181041.521000", "181041.524000", "181041.527000", "181041.531000", "181041.534000", "181041.537000", "181041.541000", "181041.544000", "181041.547000", "181041.551000", "181041.554000", "181041.557000", "181041.561000", "181041.564000", "181041.568000", "181041.571000", "181041.574000", "181041.578000", "181041.581000", "181101.517000", "181101.521000", "181101.524000", "181101.527000", "181101.531000", "181101.534000", "181101.537000", "181101.541000", "181101.544000", "181101.547000", "181101.551000", "181101.554000", "181101.557000", "181101.561000", "181101.564000", "181101.567000", "181101.571000", "181101.574000", "181101.577000", "181101.581000", "181141.517000", "181141.521000", "181141.524000", "181141.527000", "181141.531000", "181141.534000", "181141.538000", "181141.541000", "181141.544000", "181141.547000", "181141.551000", "181141.554000", "181141.558000", "181141.561000", "181141.564000", "181141.568000", "181141.571000", "181141.574000", "181141.582000", "181141.586000", "181141.589000", "181141.592000", "181141.596000", "181141.599000", "181141.603000", "181141.606000", "181141.609000", "181141.613000", "181141.616000", "181221.518000", "181221.522000", "181221.539000", "181221.542000", "181221.546000", "181221.549000", "181221.552000", "181221.556000", "181221.559000", "181221.562000", "181221.566000", "181221.569000", "181221.573000", "181221.576000", "181221.579000", "181221.583000", "181221.586000", "181221.589000", "181221.593000", "181221.596000", "181221.599000", "181221.603000", "181221.606000", "181221.609000", "181221.613000", "181221.616000", "181221.619000", "181301.517000", "181301.521000", "181301.524000", "181301.528000", "181301.531000", "181301.534000", "181301.538000", "181301.541000", "181301.544000", "181301.547000", "181301.551000", "181301.554000", "181301.561000", "181301.565000", "181301.568000", "181301.571000", "181301.575000", "181301.578000", "181301.581000", "181301.585000", "181301.588000", "181301.591000", "181301.595000", "181301.598000", "181301.601000", "181301.605000", "181301.608000", "181335.301000", "181335.305000", "181335.309000", "181335.312000", "181335.316000", "181335.319000", "181335.322000", "181335.326000", "181335.329000", "181335.333000", "181335.336000", "181335.339000", "181335.343000", "181335.346000", "181335.349000", "181335.353000", "181335.356000", "181335.359000", "181335.363000", "181335.366000", "181335.369000", "181335.372000", "181335.376000"],
      "InstanceCreationTime": ["180941.550000", "180941.560000", "180941.564000", "180941.567000", "180941.570000", "180941.573000", "180941.577000", "180941.580000", "180941.583000", "180941.587000", "180941.590000", "180941.593000", "180941.597000", "180941.600000", "180941.603000", "180941.607000", "180941.610000", "180941.623000", "180941.626000", "180941.629000", "181001.518000", "181001.522000", "181001.525000", "181001.528000", "181001.532000", "181001.535000", "181001.538000", "181001.542000", "181001.545000", "181001.549000", "181001.552000", "181001.555000", "181001.559000", "181001.562000", "181001.565000", "181001.569000", "181001.572000", "181001.575000", "181001.579000", "181001.582000", "181021.517000", "181021.528000", "181021.531000", "181021.534000", "181021.555000", "181021.559000", "181021.562000", "181021.566000", "181021.569000", "181021.572000", "181021.576000", "181021.579000", "181021.582000", "181021.586000", "181021.589000", "181021.592000", "181021.596000", "181021.599000", "181021.602000", "181021.606000", "181021.609000", "181041.517000", "181041.521000", "181041.524000", "181041.527000", "181041.531000", "181041.534000", "181041.537000", "181041.541000", "181041.544000", "181041.547000", "181041.551000", "181041.554000", "181041.557000", "181041.561000", "181041.564000", "181041.568000", "181041.571000", "181041.574000", "181041.578000", "181041.581000", "181101.517000", "181101.521000", "181101.524000", "181101.527000", "181101.531000", "181101.534000", "181101.537000", "181101.541000", "181101.544000", "181101.547000", "181101.551000", "181101.554000", "181101.557000", "181101.561000", "181101.564000", "181101.567000", "181101.571000", "181101.574000", "181101.577000", "181101.581000", "181141.517000", "181141.521000", "181141.524000", "181141.527000", "181141.531000", "181141.534000", "181141.538000", "181141.541000", "181141.544000", "181141.547000", "181141.551000", "181141.554000", "181141.558000", "181141.561000", "181141.564000", "181141.568000", "181141.571000", "181141.574000", "181141.582000", "181141.586000", "181141.589000", "181141.592000", "181141.596000", "181141.599000", "181141.603000", "181141.606000", "181141.609000", "181141.613000", "181141.616000", "181221.518000", "181221.522000", "181221.539000", "181221.542000", "181221.546000", "181221.549000", "181221.552000", "181221.556000", "181221.559000", "181221.562000", "181221.566000", "181221.569000", "181221.573000", "181221.576000", "181221.579000", "181221.583000", "181221.586000", "181221.589000", "181221.593000", "181221.596000", "181221.599000", "181221.603000", "181221.606000", "181221.609000", "181221.613000", "181221.616000", "181221.619000", "181301.517000", "181301.521000", "181301.524000", "181301.528000", "181301.531000", "181301.534000", "181301.538000", "181301.541000", "181301.544000", "181301.547000", "181301.551000", "181301.554000", "181301.561000", "181301.565000", "181301.568000", "181301.571000", "181301.575000", "181301.578000", "181301.581000", "181301.585000", "181301.588000", "181301.591000", "181301.595000", "181301.598000", "181301.601000", "181301.605000", "181301.608000", "181335.301000", "181335.305000", "181335.309000", "181335.312000", "181335.316000", "181335.319000", "181335.322000", "181335.326000", "181335.329000", "181335.333000", "181335.336000", "181335.339000", "181335.343000", "181335.346000", "181335.349000", "181335.353000", "181335.356000", "181335.359000", "181335.363000", "181335.366000", "181335.369000", "181335.372000", "181335.376000"],
      "InstanceNumber": [1, 2, 3, 4, 5, 6, 7, 8, 9, 10, 11, 12, 13, 14, 15, 16, 17, 18, 19, 20, 21, 22, 23, 24, 25, 26, 27, 28, 29, 30, 31, 32, 33, 34, 35, 36, 37, 38, 39, 40, 41, 42, 43, 44, 45, 46, 47, 48, 49, 50, 51, 52, 53, 54, 55, 56, 57, 58, 59, 60, 61, 62, 63, 64, 65, 66, 67, 68, 69, 70, 71, 72, 73, 74, 75, 76, 77, 78, 79, 80, 81, 82, 83, 84, 85, 86, 87, 88, 89, 90, 91, 92, 93, 94, 95, 96, 97, 98, 99, 100, 101, 102, 103, 104, 105, 106, 107, 108, 109, 110, 111, 112, 113, 114, 115, 116, 117, 118, 119, 120, 121, 122, 123, 124, 125, 126, 127, 128, 129, 130, 131, 132, 133, 134, 135, 136, 137, 138, 139, 140, 141, 142, 143, 144, 145, 146, 147, 148, 149, 150, 151, 152, 153, 154, 155, 156, 157, 158, 159, 160, 161, 162, 163, 164, 165, 166, 167, 168, 169, 170, 171, 172, 173, 174, 175, 176, 177, 178, 179, 180, 181, 182, 183, 184, 185, 186, 187, 188, 189, 190, 191, 192, 193, 194, 195, 196, 197, 198, 199, 200, 201, 202, 203, 204, 205, 206, 207],
      "LargestImagePixelValue": [42935, 42143, 42129, 41601, 40489, 41371, 40680, 40790, 40561, 41438, 40567, 40425, 41057, 40208, 40782, 42120, 42619, 41938, 41309, 42113, 42378, 43476, 43081, 43788, 42661, 43259, 43293, 43432, 44257, 43394, 42979, 43850, 43680, 42750, 43605, 42900, 43885, 43417, 43793, 43408, 43724, 43416, 42855, 42611, 42521, 41157, 42187, 43010, 42452, 43225, 42713, 42862, 43664, 43243, 42422, 42503, 42648, 41588, 42210, 43323, 41747, 41062, 42481, 42898, 42469, 43412, 43591, 43898, 43822, 44460, 44780, 44790, 45318, 44701, 44574, 45308, 45158, 40225, 44416, 44534, 45099, 45128, 45353, 45060, 45083, 45732, 45476, 45414, 44862, 45205, 45167, 45441, 46305, 46094, 46258, 45624, 45966, 45508, 45222, 45612, 45333, 44851, 45250, 45875, 44957, 45210, 45692, 45400, 45576, 45964, 45440, 45007, 45563, 44646, 44528, 45550, 45381, 45431, 43626, 44407, 45474, 45058, 44969, 45067, 44489, 45095, 45191, 44878, 45415, 45041, 45603, 45431, 45648, 45216, 44996, 44236, 43801, 44745, 44983, 45145, 45387, 45443, 44781, 44884, 44023, 44389, 44554, 44337, 44217, 44482, 44925, 45166, 44600, 45058, 44675, 45128, 45976, 45461, 45457, 44514, 43992, 44103, 44593, 44752, 44434, 45256, 45100, 45367, 44979, 46138, 45554, 45799, 44690, 45453, 44378, 44806, 45182, 44927, 45878, 41118, 44869, 44538, 44234, 44403, 43790, 44190, 43895, 44541, 45152, 44572, 45078, 45053, 44865, 45724, 45050, 45002, 44813, 45253, 44888, 45057, 45099, 44496, 44241, 44528, 44662, 44723, 45036],
      "WindowCenter": [10578.0, 10548.0, 10541.0, 10528.0, 10507.0, 10511.0, 10515.0, 10505.0, 10497.0, 10500.0, 10498.0, 10508.0, 10526.0, 10512.0, 10488.0, 10474.0, 10481.0, 10489.0, 10505.0, 10528.0, 10511.0, 10485.0, 10459.0, 10462.0, 10449.0, 10479.0, 10484.0, 10483.0, 10483.0, 10482.0, 10485.0, 10502.0, 10497.0, 10484.0, 10499.0, 10502.0, 10523.0, 10509.0, 10501.0, 10498.0, 10510.0, 10514.0, 10514.0, 10511.0, 10511.0, 10499.0, 10498.0, 10487.0, 10487.0, 10493.0, 10507.0, 10531.0, 10539.0, 10517.0, 10496.0, 10487.0, 10494.0, 10498.0, 10504.0, 10509.0, 10494.0, 10480.0, 10503.0, 10522.0, 10500.0, 10484.0, 10475.0, 10478.0, 10478.0, 10484.0, 10492.0, 10490.0, 10493.0, 10478.0, 10474.0, 10493.0, 10512.0, 10483.0, 10510.0, 10513.0, 10517.0, 10526.0, 10534.0, 10519.0, 10521.0, 10521.0, 10525.0, 10524.0, 10509.0, 10510.0, 10527.0, 10527.0, 10545.0, 10537.0, 10533.0, 10513.0, 10509.0, 10517.0, 10512.0, 10519.0, 10528.0, 10534.0, 10541.0, 10525.0, 10504.0, 10494.0, 10504.0, 10504.0, 10512.0, 10517.0, 10506.0, 10506.0, 10515.0, 10520.0, 10530.0, 10542.0, 10549.0, 10542.0, 10513.0, 10514.0, 10532.0, 10547.0, 10562.0, 10561.0, 10545.0, 10546.0, 10544.0, 10537.0, 10533.0, 10526.0, 10537.0, 10542.0, 10557.0, 10555.0, 10555.0, 10545.0, 10539.0, 10546.0, 10544.0, 10550.0, 10553.0, 10552.0, 10549.0, 10551.0, 10547.0, 10545.0, 10538.0, 10551.0, 10554.0, 10570.0, 10578.0, 10589.0, 10577.0, 10570.0, 10550.0, 10540.0, 10565.0, 10561.0, 10551.0, 10541.0, 10527.0, 10541.0, 10549.0, 10549.0, 10541.0, 10538.0, 10519.0, 10521.0, 10515.0, 10535.0, 10546.0, 10551.0, 10535.0, 10540.0, 10529.0, 10537.0, 10548.0, 10536.0, 10532.0, 10474.0, 10517.0, 10529.0, 10533.0, 10550.0, 10545.0, 10536.0, 10523.0, 10524.0, 10535.0, 10522.0, 10512.0, 10517.0, 10517.0, 10529.0, 10535.0, 10538.0, 10536.0, 10544.0, 10535.0, 10528.0, 10526.0, 10514.0, 10524.0, 10538.0, 10539.0, 10540.0, 10539.0],
      "WindowWidth": [22504.0, 22415.0, 22384.0, 22352.0, 22300.0, 22307.0, 22328.0, 22297.0, 22277.0, 22282.0, 22282.0, 22305.0, 22348.0, 22317.0, 22254.0, 22215.0, 22240.0, 22251.0, 22293.0, 22342.0, 22300.0, 22229.0, 22174.0, 22177.0, 22153.0, 22222.0, 22235.0, 22232.0, 22239.0, 22230.0, 22243.0, 22276.0, 22265.0, 22239.0, 22271.0, 22283.0, 22325.0, 22292.0, 22277.0, 22267.0, 22290.0, 22302.0, 22307.0, 22303.0, 22305.0, 22282.0, 22272.0, 22246.0, 22250.0, 22260.0, 22295.0, 22348.0, 22365.0, 22322.0, 22263.0, 22242.0, 22265.0, 22276.0, 22284.0, 22290.0, 22261.0, 22233.0, 22276.0, 22323.0, 22276.0, 22230.0, 22212.0, 22216.0, 22216.0, 22227.0, 22246.0, 22241.0, 22245.0, 22214.0, 22207.0, 22246.0, 22295.0, 22250.0, 22297.0, 22295.0, 22302.0, 22321.0, 22339.0, 22304.0, 22314.0, 22308.0, 22324.0, 22322.0, 22286.0, 22288.0, 22333.0, 22327.0, 22364.0, 22345.0, 22327.0, 22289.0, 22277.0, 22299.0, 22287.0, 22303.0, 22321.0, 22340.0, 22356.0, 22316.0, 22278.0, 22249.0, 22269.0, 22267.0, 22288.0, 22298.0, 22275.0, 22277.0, 22299.0, 22314.0, 22335.0, 22357.0, 22375.0, 22356.0, 22305.0, 22297.0, 22335.0, 22370.0, 22411.0, 22404.0, 22371.0, 22368.0, 22367.0, 22353.0, 22338.0, 22321.0, 22343.0, 22363.0, 22396.0, 22394.0, 22390.0, 22371.0, 22356.0, 22364.0, 22360.0, 22374.0, 22388.0, 22382.0, 22376.0, 22386.0, 22379.0, 22375.0, 22355.0, 22386.0, 22396.0, 22430.0, 22448.0, 22484.0, 22452.0, 22427.0, 22380.0, 22357.0, 22415.0, 22405.0, 22379.0, 22362.0, 22325.0, 22354.0, 22374.0, 22375.0, 22353.0, 22344.0, 22299.0, 22298.0, 22289.0, 22332.0, 22358.0, 22371.0, 22331.0, 22341.0, 22323.0, 22343.0, 22364.0, 22339.0, 22326.0, 22218.0, 22296.0, 22327.0, 22334.0, 22373.0, 22366.0, 22343.0, 22319.0, 22310.0, 22335.0, 22308.0, 22280.0, 22292.0, 22294.0, 22318.0, 22341.0, 22346.0, 22336.0, 22354.0, 22333.0, 22316.0, 22316.0, 22297.0, 22313.0, 22344.0, 22342.0, 22344.0, 22342.0]
    },
    "slices": {}
  }
}