{
  "AcquisitionMatrixPE": 104,
  "AcquisitionNumber": 1,
  "AcquisitionTime": "18:15:12.475000",
  "B0FieldSource": "sub-01_ses-001_task-gamepad_run-02_part-mag_bold.nii.gz",
  "BandwidthPerPixelPhaseEncode": 17.17,
  "BaseResolution": 104,
  "BodyPartExamined": "BRAIN",
  "CoilCombinationMethod": "Sum of Squares",
  "ConsistencyInfo": "N4_VE11C_LATEST_20160120",
  "ConversionSoftware": "dcm2niix",
  "ConversionSoftwareVersion": "v1.0.20211006",
  "DerivedVendorReportedEchoSpacing": 0.000560011,
  "DeviceSerialNumber": "167006",
  "DwellTime": 2.1e-06,
  "EchoTime": 0.037,
  "EchoTrainLength": 104,
  "EffectiveEchoSpacing": 0.000560011,
  "FlipAngle": 52,
  "HeudiconvVersion": "0.10.0",
  "ImageComments": "Unaliased MB4/PE3/LB",
  "ImageOrientationPatientDICOM": [0.997638, 0.0541725, 0.042233, -0.0323979, 0.913247, -0.406116],
  "ImageOrientationText": "Tra>Cor(-23.9)>Sag(3.5)",
  "ImageType": [
    "ORIGINAL",
    "PRIMARY",
    "M",
    "MB",
    "ND",
    "MOSAIC"
],
  "ImagingFrequency": 123.259,
  "InPlanePhaseEncodingDirectionDICOM": "COL",
  "InstitutionAddress": "Chemin Queen-Mary 4565,Montreal,District,CA,H3W 1W5",
  "InstitutionName": "IUGM",
  "InstitutionalDepartmentName": "Department",
  "MRAcquisitionType": "2D",
  "MagneticFieldStrength": 3,
  "Manufacturer": "Siemens",
  "ManufacturersModelName": "Prisma_fit",
  "MatrixCoilMode": "SENSE",
  "Modality": "MR",
  "MultibandAccelerationFactor": 4,
  "PartialFourier": 1,
  "PatientPosition": "HFS",
  "PercentPhaseFOV": 100,
  "PercentSampling": 100,
  "PhaseEncodingDirection": "j",
  "PhaseEncodingSteps": 104,
  "PhaseResolution": 1,
  "PixelBandwidth": 2290,
  "ProcedureStepDescription": "games^gamepad",
  "ProtocolName": "func_task-gamepad_run-2",
  "PulseSequenceDetails": "%CustomerSeq%\\cmrr_mbep2d_bold",
  "ReceiveCoilActiveElements": "HC1-7;NC1,2",
  "ReceiveCoilName": "HeadNeck_64",
  "ReconMatrixPE": 104,
  "RepetitionTime": 1.49,
  "SAR": 0.0386996,
  "ScanOptions": "FS",
  "ScanningSequence": "EP",
  "SequenceName": "epfid2d1_104",
  "SequenceVariant": "SK\\SS",
  "SeriesDescription": "func_task-gamepad_run-2",
  "SeriesNumber": 13,
  "ShimSetting": [626, -7176, -8835, 602, 55, 12, -95, 14],
  "SliceThickness": 2,
  "SliceTiming": [0, 0.7825, 0.0975, 0.8825, 0.195, 0.98, 0.2925, 1.0775, 0.3925, 1.175, 0.49, 1.2725, 0.5875, 1.3725, 0.685, 0, 0.7825, 0.0975, 0.8825, 0.195, 0.98, 0.2925, 1.0775, 0.3925, 1.175, 0.49, 1.2725, 0.5875, 1.3725, 0.685, 0, 0.7825, 0.0975, 0.8825, 0.195, 0.98, 0.2925, 1.0775, 0.3925, 1.175, 0.49, 1.2725, 0.5875, 1.3725, 0.685, 0, 0.7825, 0.0975, 0.8825, 0.195, 0.98, 0.2925, 1.0775, 0.3925, 1.175, 0.49, 1.2725, 0.5875, 1.3725, 0.685],
  "SoftwareVersions": "syngo MR E11",
  "SpacingBetweenSlices": 2,
  "StationName": "MRC35049",
  "TaskName": "gamepad",
  "TotalReadoutTime": 0.0576811,
  "TxRefAmp": 252.981,
  "WipMemBlock": "31e84726-fecd-43c6-bf06-90194a372ba5||Sequence: R016 ve11c/master r/e634e98; Dec 19 2017 11:00:25 by eja",
  "dcmmeta_affine": [
    [-1.9952760934829712, -0.06479577720165253, 0.12113899737596512, 107.32513427734375],
    [-0.10834495723247528, 1.8264944553375244, -0.8075762391090393, -50.63606643676758],
    [0.08446609228849411, 0.812231183052063, 1.825690507888794, -70.62541961669922],
    [0.0, 0.0, 0.0, 1.0]
],
  "dcmmeta_reorient_transform": [
    [0.0, -1.0, 0.0, 103.0],
    [1.0, 0.0, 0.0, 0.0],
    [0.0, 0.0, 1.0, 0.0],
    [0.0, 0.0, 0.0, 1.0]
],
  "dcmmeta_shape": [104, 104, 60, 207],
  "dcmmeta_slice_dim": 2,
  "dcmmeta_version": 0.6,
  "global": {
    "const": {
      "AcquisitionMatrix": [104, 0, 0, 104],
      "AngioFlag": "N",
      "BitsAllocated": 16,
      "BitsStored": 16,
      "BodyPartExamined": "BRAIN",
      "Columns": 832,
      "EchoNumbers": 1,
      "EchoTime": 37.0,
      "EchoTrainLength": 104,
      "FlipAngle": 52.0,
      "HighBit": 15,
      "ImageOrientationPatient": [0.99763806693048, 0.05417247714834, 0.04223304548369, -0.032397887641, 0.9132472270109, -0.4061155983625],
      "ImagePositionPatient": [-803.34602312502, -841.77440800233, 277.94089488077],
      "ImageType": [
        "ORIGINAL",
        "PRIMARY",
        "M",
        "MB",
        "ND",
        "MOSAIC"
],
      "ImagedNucleus": "1H",
      "ImagingFrequency": 123.258933,
      "InPlanePhaseEncodingDirection": "COL",
      "MRAcquisitionType": "2D",
      "MagneticFieldStrength": 3.0,
      "Manufacturer": "SIEMENS",
      "ManufacturerModelName": "Prisma_fit",
      "Modality": "MR",
      "NumberOfAverages": 1.0,
      "NumberOfPhaseEncodingSteps": 104,
      "PercentPhaseFieldOfView": 100.0,
      "PercentSampling": 100.0,
      "PerformedProcedureStepStartTime": "180350.649000",
      "PhotometricInterpretation": "MONOCHROME2",
      "PixelBandwidth": 2290.0,
      "PixelRepresentation": 0,
      "PixelSpacing": [2.0, 2.0],
      "ProtocolName": "func_task-gamepad_run-2",
      "RepetitionTime": 1490.0,
      "Rows": 832,
      "SAR": 0.03869959523926,
      "SamplesPerPixel": 1,
      "ScanOptions": "FS",
      "ScanningSequence": "EP",
      "SequenceName": "epfid2d1_104",
      "SequenceVariant": [
        "SK",
        "SS"
],
      "SeriesDescription": "func_task-gamepad_run-2",
      "SeriesNumber": 13,
      "SeriesTime": "181627.379000",
      "SliceLocation": -37.523206406037,
      "SliceThickness": 2.0,
      "SmallestImagePixelValue": 0,
      "SoftwareVersions": "syngo MR E11",
      "SpacingBetweenSlices": 1.9999999487198,
      "SpecificCharacterSet": "ISO_IR 100",
      "StudyID": "1",
      "StudyTime": "180350.558000",
      "TransmitCoilName": "Body",
      "VariableFlipAngleFlag": "N",
      "WindowCenterWidthExplanation": "Algo1",
      "dBdt": 0.0},
    "slices": {}
  },
  "time": {
    "samples": {
      "AcquisitionNumber": [1, 2, 3, 4, 5, 6, 7, 8, 9, 10, 11, 12, 13, 14, 15, 16, 17, 18, 19, 20, 21, 22, 23, 24, 25, 26, 27, 28, 29, 30, 31, 32, 33, 34, 35, 36, 37, 38, 39, 40, 41, 42, 43, 44, 45, 46, 47, 48, 49, 50, 51, 52, 53, 54, 55, 56, 57, 58, 59, 60, 61, 62, 63, 64, 65, 66, 67, 68, 69, 70, 71, 72, 73, 74, 75, 76, 77, 78, 79, 80, 81, 82, 83, 84, 85, 86, 87, 88, 89, 90, 91, 92, 93, 94, 95, 96, 97, 98, 99, 100, 101, 102, 103, 104, 105, 106, 107, 108, 109, 110, 111, 112, 113, 114, 115, 116, 117, 118, 119, 120, 121, 122, 123, 124, 125, 126, 127, 128, 129, 130, 131, 132, 133, 134, 135, 136, 137, 138, 139, 140, 141, 142, 143, 144, 145, 146, 147, 148, 149, 150, 151, 152, 153, 154, 155, 156, 157, 158, 159, 160, 161, 162, 163, 164, 165, 166, 167, 168, 169, 170, 171, 172, 173, 174, 175, 176, 177, 178, 179, 180, 181, 182, 183, 184, 185, 186, 187, 188, 189, 190, 191, 192, 193, 194, 195, 196, 197, 198, 199, 200, 201, 202, 203, 204, 205, 206, 207],
      "AcquisitionTime": ["181512.475000", "181513.965000", "181515.455000", "181516.945000", "181518.435000", "181519.925000", "181521.415000", "181522.905000", "181524.395000", "181525.885000", "181527.375000", "181528.865000", "181530.355000", "181531.845000", "181533.335000", "181534.825000", "181536.315000", "181537.805000", "181539.295000", "181540.785000", "181542.275000", "181543.765000", "181545.255000", "181546.745000", "181548.235000", "181549.725000", "181551.215000", "181552.705000", "181554.195000", "181555.685000", "181557.175000", "181558.665000", "181600.155000", "181601.645000", "181603.135000", "181604.625000", "181606.115000", "181607.605000", "181609.095000", "181610.585000", "181612.075000", "181613.565000", "181615.055000", "181616.545000", "181618.035000", "181619.525000", "181621.015000", "181622.505000", "181623.995000", "181625.485000", "181626.975000", "181628.465000", "181629.955000", "181631.445000", "181632.935000", "181634.425000", "181635.915000", "181637.405000", "181638.895000", "181640.385000", "181641.875000", "181643.365000", "181644.855000", "181646.345000", "181647.835000", "181649.325000", "181650.815000", "181652.305000", "181653.795000", "181655.285000", "181656.775000", "181658.265000", "181659.755000", "181701.245000", "181702.735000", "181704.225000", "181705.715000", "181707.205000", "181708.695000", "181710.185000", "181711.675000", "181713.165000", "181714.655000", "181716.145000", "181717.635000", "181719.125000", "181720.615000", "181722.105000", "181723.595000", "181725.085000", "181726.575000", "181728.065000", "181729.555000", "181731.045000", "181732.535000", "181734.025000", "181735.515000", "181737.005000", "181738.495000", "181739.985000", "181741.475000", "181742.965000", "181744.455000", "181745.945000", "181747.435000", "181748.925000", "181750.415000", "181751.905000", "181753.395000", "181754.885000", "181756.375000", "181757.865000", "181759.355000", "181800.845000", "181802.335000", "181803.825000", "181805.315000", "181806.805000", "181808.295000", "181809.785000", "181811.275000", "181812.765000", "181814.255000", "181815.745000", "181817.235000", "181818.725000", "181820.215000", "181821.705000", "181823.195000", "181824.685000", "181826.175000", "181827.665000", "181829.155000", "181830.645000", "181832.135000", "181833.625000", "181835.115000", "181836.605000", "181838.095000", "181839.585000", "181841.075000", "181842.565000", "181844.055000", "181845.545000", "181847.035000", "181848.525000", "181850.015000", "181851.505000", "181852.995000", "181854.485000", "181855.975000", "181857.465000", "181858.955000", "181900.445000", "181901.935000", "181903.425000", "181904.915000", "181906.405000", "181907.895000", "181909.385000", "181910.875000", "181912.365000", "181913.855000", "181915.345000", "181916.835000", "181918.325000", "181919.815000", "181921.305000", "181922.795000", "181924.285000", "181925.775000", "181927.265000", "181928.755000", "181930.245000", "181931.735000", "181933.225000", "181934.715000", "181936.205000", "181937.695000", "181939.185000", "181940.675000", "181942.165000", "181943.655000", "181945.145000", "181946.635000", "181948.125000", "181949.615000", "181951.105000", "181952.595000", "181954.085000", "181955.575000", "181957.065000", "181958.555000", "182000.045000", "182001.535000", "182003.025000", "182004.515000", "182006.005000", "182007.495000", "182008.985000", "182010.475000", "182011.965000", "182013.455000", "182014.945000", "182016.435000", "182017.925000", "182019.415000"],
      "ContentTime": ["181627.382000", "181627.386000", "181627.389000", "181627.392000", "181627.396000", "181627.399000", "181627.421000", "181627.425000", "181627.428000", "181627.431000", "181627.444000", "181627.447000", "181627.450000", "181627.454000", "181627.457000", "181627.460000", "181627.464000", "181627.467000", "181627.471000", "181627.474000", "181627.478000", "181647.331000", "181647.335000", "181647.338000", "181647.341000", "181647.344000", "181647.348000", "181647.351000", "181647.354000", "181647.358000", "181647.361000", "181647.364000", "181647.367000", "181647.371000", "181647.374000", "181647.377000", "181647.381000", "181647.384000", "181647.387000", "181647.391000", "181647.400000", "181647.403000", "181707.331000", "181707.335000", "181707.338000", "181707.341000", "181707.345000", "181707.348000", "181707.351000", "181707.354000", "181707.359000", "181707.362000", "181707.366000", "181707.369000", "181707.372000", "181707.376000", "181707.379000", "181707.382000", "181707.386000", "181707.389000", "181707.392000", "181707.396000", "181727.331000", "181727.335000", "181727.338000", "181727.341000", "181727.345000", "181727.348000", "181727.351000", "181727.355000", "181727.358000", "181727.361000", "181727.365000", "181727.368000", "181727.371000", "181727.375000", "181727.378000", "181727.381000", "181727.384000", "181727.388000", "181727.391000", "181727.394000", "181747.331000", "181747.335000", "181747.338000", "181747.341000", "181747.345000", "181747.348000", "181747.351000", "181747.354000", "181747.358000", "181747.361000", "181747.364000", "181747.368000", "181747.371000", "181747.374000", "181747.378000", "181747.381000", "181747.384000", "181747.388000", "181747.391000", "181747.394000", "181747.397000", "181827.332000", "181827.336000", "181827.339000", "181827.343000", "181827.346000", "181827.349000", "181827.352000", "181827.356000", "181827.359000", "181827.362000", "181827.377000", "181827.381000", "181827.384000", "181827.388000", "181827.401000", "181827.404000", "181827.407000", "181827.411000", "181827.414000", "181827.417000", "181827.421000", "181827.424000", "181827.427000", "181827.431000", "181827.434000", "181827.437000", "181827.441000", "181907.331000", "181907.335000", "181907.338000", "181907.342000", "181907.345000", "181907.348000", "181907.352000", "181907.355000", "181907.358000", "181907.362000", "181907.365000", "181907.368000", "181907.372000", "181907.375000", "181907.378000", "181907.382000", "181907.385000", "181907.388000", "181907.392000", "181907.395000", "181907.398000", "181907.402000", "181907.405000", "181907.408000", "181907.412000", "181907.415000", "181907.418000", "181947.331000", "181947.335000", "181947.338000", "181947.342000", "181947.345000", "181947.348000", "181947.351000", "181947.355000", "181947.358000", "181947.361000", "181947.365000", "181947.368000", "181947.371000", "181947.375000", "181947.378000", "181947.381000", "181947.385000", "181947.388000", "181947.391000", "181947.394000", "181947.398000", "181947.401000", "181947.404000", "181947.407000", "181947.411000", "181947.414000", "181947.417000", "182021.244000", "182021.247000", "182021.251000", "182021.254000", "182021.257000", "182021.261000", "182021.264000", "182021.267000", "182021.270000", "182021.274000", "182021.277000", "182021.280000", "182021.284000", "182021.287000", "182021.290000", "182021.294000", "182021.297000", "182021.300000", "182021.304000", "182021.307000", "182021.310000", "182021.313000", "182021.317000"],
      "InstanceCreationTime": ["181627.382000", "181627.386000", "181627.389000", "181627.392000", "181627.396000", "181627.399000", "181627.421000", "181627.425000", "181627.428000", "181627.431000", "181627.444000", "181627.447000", "181627.450000", "181627.454000", "181627.457000", "181627.460000", "181627.464000", "181627.467000", "181627.471000", "181627.474000", "181627.478000", "181647.331000", "181647.335000", "181647.338000", "181647.341000", "181647.344000", "181647.348000", "181647.351000", "181647.354000", "181647.358000", "181647.361000", "181647.364000", "181647.367000", "181647.371000", "181647.374000", "181647.377000", "181647.381000", "181647.384000", "181647.387000", "181647.391000", "181647.400000", "181647.403000", "181707.331000", "181707.335000", "181707.338000", "181707.341000", "181707.345000", "181707.348000", "181707.351000", "181707.354000", "181707.359000", "181707.362000", "181707.366000", "181707.369000", "181707.372000", "181707.376000", "181707.379000", "181707.382000", "181707.386000", "181707.389000", "181707.392000", "181707.396000", "181727.331000", "181727.335000", "181727.338000", "181727.341000", "181727.345000", "181727.348000", "181727.351000", "181727.355000", "181727.358000", "181727.361000", "181727.365000", "181727.368000", "181727.371000", "181727.375000", "181727.378000", "181727.381000", "181727.384000", "181727.388000", "181727.391000", "181727.394000", "181747.331000", "181747.335000", "181747.338000", "181747.341000", "181747.345000", "181747.348000", "181747.351000", "181747.354000", "181747.358000", "181747.361000", "181747.364000", "181747.368000", "181747.371000", "181747.374000", "181747.378000", "181747.381000", "181747.384000", "181747.388000", "181747.391000", "181747.394000", "181747.397000", "181827.332000", "181827.336000", "181827.339000", "181827.343000", "181827.346000", "181827.349000", "181827.352000", "181827.356000", "181827.359000", "181827.362000", "181827.377000", "181827.381000", "181827.384000", "181827.388000", "181827.401000", "181827.404000", "181827.407000", "181827.411000", "181827.414000", "181827.417000", "181827.421000", "181827.424000", "181827.427000", "181827.431000", "181827.434000", "181827.437000", "181827.441000", "181907.331000", "181907.335000", "181907.338000", "181907.342000", "181907.345000", "181907.348000", "181907.352000", "181907.355000", "181907.358000", "181907.362000", "181907.365000", "181907.368000", "181907.372000", "181907.375000", "181907.378000", "181907.382000", "181907.385000", "181907.388000", "181907.392000", "181907.395000", "181907.398000", "181907.402000", "181907.405000", "181907.408000", "181907.412000", "181907.415000", "181907.418000", "181947.331000", "181947.335000", "181947.338000", "181947.342000", "181947.345000", "181947.348000", "181947.351000", "181947.355000", "181947.358000", "181947.361000", "181947.365000", "181947.368000", "181947.371000", "181947.375000", "181947.378000", "181947.381000", "181947.385000", "181947.388000", "181947.391000", "181947.394000", "181947.398000", "181947.401000", "181947.404000", "181947.407000", "181947.411000", "181947.414000", "181947.417000", "182021.244000", "182021.247000", "182021.251000", "182021.254000", "182021.257000", "182021.261000", "182021.264000", "182021.267000", "182021.270000", "182021.274000", "182021.277000", "182021.280000", "182021.284000", "182021.287000", "182021.290000", "182021.294000", "182021.297000", "182021.300000", "182021.304000", "182021.307000", "182021.310000", "182021.313000", "182021.317000"],
      "InstanceNumber": [1, 2, 3, 4, 5, 6, 7, 8, 9, 10, 11, 12, 13, 14, 15, 16, 17, 18, 19, 20, 21, 22, 23, 24, 25, 26, 27, 28, 29, 30, 31, 32, 33, 34, 35, 36, 37, 38, 39, 40, 41, 42, 43, 44, 45, 46, 47, 48, 49, 50, 51, 52, 53, 54, 55, 56, 57, 58, 59, 60, 61, 62, 63, 64, 65, 66, 67, 68, 69, 70, 71, 72, 73, 74, 75, 76, 77, 78, 79, 80, 81, 82, 83, 84, 85, 86, 87, 88, 89, 90, 91, 92, 93, 94, 95, 96, 97, 98, 99, 100, 101, 102, 103, 104, 105, 106, 107, 108, 109, 110, 111, 112, 113, 114, 115, 116, 117, 118, 119, 120, 121, 122, 123, 124, 125, 126, 127, 128, 129, 130, 131, 132, 133, 134, 135, 136, 137, 138, 139, 140, 141, 142, 143, 144, 145, 146, 147, 148, 149, 150, 151, 152, 153, 154, 155, 156, 157, 158, 159, 160, 161, 162, 163, 164, 165, 166, 167, 168, 169, 170, 171, 172, 173, 174, 175, 176, 177, 178, 179, 180, 181, 182, 183, 184, 185, 186, 187, 188, 189, 190, 191, 192, 193, 194, 195, 196, 197, 198, 199, 200, 201, 202, 203, 204, 205, 206, 207],
      "LargestImagePixelValue": [41326, 40541, 41120, 40287, 40121, 39325, 39052, 39050, 40692, 40865, 39615, 39286, 40183, 40061, 40770, 40424, 41206, 40848, 39915, 41110, 40503, 41829, 41795, 41898, 41634, 42213, 42557, 42582, 41710, 41328, 41411, 41726, 41716, 41728, 40875, 41773, 41766, 40962, 43788, 41290, 40879, 40376, 40799, 41216, 41755, 41264, 41356, 41477, 41398, 40906, 41544, 42647, 41808, 42654, 42023, 42370, 41901, 42178, 41504, 42477, 41868, 42135, 41457, 42033, 41809, 40267, 40239, 40628, 41264, 41995, 41838, 41582, 41684, 42634, 42320, 43018, 43066, 42667, 42154, 42301, 42807, 41549, 42020, 41798, 41454, 41605, 41649, 41142, 41224, 41783, 41237, 42221, 41691, 41394, 41920, 40695, 41471, 41596, 40888, 41608, 41703, 41337, 41772, 41759, 42028, 42455, 42002, 41940, 42878, 41671, 41563, 42538, 41771, 41034, 40949, 40702, 39884, 39748, 40910, 40904, 40906, 41097, 40948, 42908, 42599, 42179, 41709, 41300, 42822, 42718, 43139, 43238, 42841, 42478, 42957, 44563, 44005, 42665, 42847, 48602, 43061, 42843, 40998, 38430, 38767, 40089, 41555, 42313, 42865, 42664, 42864, 43170, 42590, 44838, 42632, 43362, 42361, 43011, 44285, 45146, 44575, 43231, 42860, 42973, 43950, 43474, 44222, 42482, 42336, 44284, 44070, 44408, 44254, 44372, 45364, 44725, 44846, 43949, 45291, 44974, 44385, 45186, 43831, 43654, 43963, 43814, 44483, 44371, 44879, 43982, 43876, 43210, 43935, 43244, 43791, 44063, 44096, 43351, 44118, 43576, 44125, 43010, 43618, 44598, 43358, 43243, 43688],
      "WindowCenter": [10549.0, 10512.0, 10503.0, 10487.0, 10472.0, 10465.0, 10465.0, 10464.0, 10483.0, 10501.0, 10507.0, 10494.0, 10475.0, 10464.0, 10479.0, 10493.0, 10506.0, 10508.0, 10494.0, 10487.0, 10460.0, 10467.0, 10467.0, 10467.0, 10478.0, 10495.0, 10477.0, 10467.0, 10458.0, 10457.0, 10457.0, 10456.0, 10467.0, 10472.0, 10467.0, 10479.0, 10469.0, 10447.0, 10490.0, 10485.0, 10479.0, 10467.0, 10460.0, 10454.0, 10460.0, 10470.0, 10479.0, 10501.0, 10502.0, 10470.0, 10459.0, 10462.0, 10456.0, 10478.0, 10477.0, 10493.0, 10487.0, 10483.0, 10468.0, 10470.0, 10480.0, 10499.0, 10497.0, 10493.0, 10485.0, 10467.0, 10458.0, 10464.0, 10476.0, 10491.0, 10505.0, 10510.0, 10501.0, 10503.0, 10494.0, 10498.0, 10502.0, 10500.0, 10502.0, 10501.0, 10505.0, 10509.0, 10529.0, 10533.0, 10528.0, 10527.0, 10533.0, 10528.0, 10530.0, 10531.0, 10524.0, 10538.0, 10533.0, 10522.0, 10519.0, 10504.0, 10511.0, 10516.0, 10504.0, 10516.0, 10532.0, 10518.0, 10520.0, 10519.0, 10521.0, 10541.0, 10532.0, 10526.0, 10519.0, 10504.0, 10516.0, 10518.0, 10504.0, 10511.0, 10521.0, 10518.0, 10515.0, 10506.0, 10497.0, 10484.0, 10490.0, 10498.0, 10492.0, 10514.0, 10506.0, 10517.0, 10512.0, 10498.0, 10500.0, 10485.0, 10499.0, 10517.0, 10537.0, 10544.0, 10526.0, 10518.0, 10496.0, 10489.0, 10512.0, 10578.0, 10539.0, 10526.0, 10503.0, 10467.0, 10482.0, 10525.0, 10555.0, 10566.0, 10549.0, 10530.0, 10503.0, 10499.0, 10514.0, 10552.0, 10519.0, 10502.0, 10483.0, 10483.0, 10501.0, 10506.0, 10483.0, 10464.0, 10463.0, 10472.0, 10484.0, 10486.0, 10484.0, 10463.0, 10456.0, 10480.0, 10480.0, 10488.0, 10495.0, 10494.0, 10502.0, 10498.0, 10513.0, 10511.0, 10528.0, 10525.0, 10522.0, 10535.0, 10533.0, 10519.0, 10516.0, 10518.0, 10535.0, 10532.0, 10534.0, 10521.0, 10514.0, 10515.0, 10519.0, 10529.0, 10529.0, 10523.0, 10507.0, 10494.0, 10530.0, 10565.0, 10570.0, 10542.0, 10528.0, 10531.0, 10521.0, 10535.0, 10544.0],
      "WindowWidth": [22435.0, 22333.0, 22297.0, 22255.0, 22218.0, 22206.0, 22209.0, 22204.0, 22241.0, 22285.0, 22305.0, 22277.0, 22226.0, 22200.0, 22234.0, 22270.0, 22296.0, 22301.0, 22272.0, 22251.0, 22188.0, 22199.0, 22199.0, 22198.0, 22227.0, 22270.0, 22220.0, 22194.0, 22176.0, 22177.0, 22177.0, 22172.0, 22201.0, 22220.0, 22210.0, 22232.0, 22205.0, 22161.0, 22255.0, 22249.0, 22234.0, 22209.0, 22197.0, 22174.0, 22186.0, 22209.0, 22232.0, 22280.0, 22289.0, 22214.0, 22182.0, 22187.0, 22178.0, 22228.0, 22229.0, 22267.0, 22254.0, 22238.0, 22205.0, 22208.0, 22231.0, 22273.0, 22272.0, 22257.0, 22240.0, 22206.0, 22191.0, 22196.0, 22220.0, 22249.0, 22285.0, 22303.0, 22277.0, 22278.0, 22258.0, 22265.0, 22276.0, 22275.0, 22282.0, 22276.0, 22285.0, 22300.0, 22350.0, 22361.0, 22350.0, 22348.0, 22356.0, 22348.0, 22355.0, 22349.0, 22334.0, 22364.0, 22355.0, 22332.0, 22325.0, 22292.0, 22309.0, 22321.0, 22296.0, 22320.0, 22359.0, 22323.0, 22323.0, 22318.0, 22325.0, 22366.0, 22351.0, 22335.0, 22316.0, 22283.0, 22322.0, 22315.0, 22284.0, 22309.0, 22333.0, 22321.0, 22317.0, 22305.0, 22271.0, 22238.0, 22254.0, 22276.0, 22262.0, 22308.0, 22282.0, 22319.0, 22305.0, 22271.0, 22275.0, 22232.0, 22264.0, 22307.0, 22354.0, 22375.0, 22331.0, 22313.0, 22251.0, 22253.0, 22302.0, 22446.0, 22359.0, 22330.0, 22282.0, 22211.0, 22244.0, 22345.0, 22405.0, 22426.0, 22384.0, 22339.0, 22274.0, 22263.0, 22298.0, 22400.0, 22317.0, 22271.0, 22230.0, 22223.0, 22262.0, 22272.0, 22219.0, 22180.0, 22179.0, 22197.0, 22216.0, 22226.0, 22220.0, 22173.0, 22160.0, 22219.0, 22210.0, 22227.0, 22255.0, 22247.0, 22258.0, 22254.0, 22290.0, 22293.0, 22324.0, 22315.0, 22314.0, 22343.0, 22345.0, 22316.0, 22305.0, 22310.0, 22344.0, 22339.0, 22344.0, 22316.0, 22298.0, 22303.0, 22313.0, 22335.0, 22336.0, 22314.0, 22278.0, 22252.0, 22333.0, 22425.0, 22428.0, 22365.0, 22332.0, 22333.0, 22317.0, 22349.0, 22367.0]
    },
    "slices": {}
  }
}