{
  "AcquisitionMatrixPE": 104,
  "AcquisitionNumber": 1,
  "AcquisitionTime": "18:15:12.475000",
  "BandwidthPerPixelPhaseEncode": 17.17,
  "BaseResolution": 104,
  "BodyPartExamined": "BRAIN",
  "CoilCombinationMethod": "Sum of Squares",
  "ConsistencyInfo": "N4_VE11C_LATEST_20160120",
  "ConversionSoftware": "dcm2niix",
  "ConversionSoftwareVersion": "v1.0.20211006",
  "DerivedVendorReportedEchoSpacing": 0.000560011,
  "DeviceSerialNumber": "167006",
  "DwellTime": 2.1e-06,
  "EchoTime": 0.037,
  "EchoTime1": 0.037,
  "EchoTime2": 0.001,
  "EchoTrainLength": 104,
  "EffectiveEchoSpacing": 0.000560011,
  "FlipAngle": 52,
  "HeudiconvVersion": "0.10.0",
  "ImageComments": "Unaliased MB4/PE3/LB",
  "ImageOrientationPatientDICOM": [0.997638, 0.0541725, 0.042233, -0.0323979, 0.913247, -0.406116],
  "ImageOrientationText": "Tra>Cor(-23.9)>Sag(3.5)",
  "ImageType": [
    "ORIGINAL",
    "PRIMARY",
    "P",
    "MB",
    "ND",
    "MOSAIC",
    "PHASE"
],
  "ImagingFrequency": 123.259,
  "InPlanePhaseEncodingDirectionDICOM": "COL",
  "InstitutionAddress": "Chemin Queen-Mary 4565,Montreal,District,CA,H3W 1W5",
  "InstitutionName": "IUGM",
  "InstitutionalDepartmentName": "Department",
  "MRAcquisitionType": "2D",
  "MagneticFieldStrength": 3,
  "Manufacturer": "Siemens",
  "ManufacturersModelName": "Prisma_fit",
  "MatrixCoilMode": "SENSE",
  "Modality": "MR",
  "MultibandAccelerationFactor": 4,
  "PartialFourier": 1,
  "PatientPosition": "HFS",
  "PercentPhaseFOV": 100,
  "PercentSampling": 100,
  "PhaseEncodingDirection": "j",
  "PhaseEncodingSteps": 104,
  "PhaseResolution": 1,
  "PixelBandwidth": 2290,
  "ProcedureStepDescription": "games^gamepad",
  "ProtocolName": "func_task-gamepad_run-2",
  "PulseSequenceDetails": "%CustomerSeq%\\cmrr_mbep2d_bold",
  "ReceiveCoilActiveElements": "HC1-7;NC1,2",
  "ReceiveCoilName": "HeadNeck_64",
  "ReconMatrixPE": 104,
  "RepetitionTime": 1.49,
  "SAR": 0.0386996,
  "ScanOptions": "FS",
  "ScanningSequence": "EP",
  "SequenceName": "epfid2d1_104",
  "SequenceVariant": "SK\\SS",
  "SeriesDescription": "func_task-gamepad_run-2",
  "SeriesNumber": 14,
  "ShimSetting": [626, -7176, -8835, 602, 55, 12, -95, 14],
  "SliceThickness": 2,
  "SliceTiming": [0, 0.7825, 0.0975, 0.8825, 0.195, 0.98, 0.2925, 1.0775, 0.3925, 1.175, 0.49, 1.2725, 0.5875, 1.3725, 0.685, 0, 0.7825, 0.0975, 0.8825, 0.195, 0.98, 0.2925, 1.0775, 0.3925, 1.175, 0.49, 1.2725, 0.5875, 1.3725, 0.685, 0, 0.7825, 0.0975, 0.8825, 0.195, 0.98, 0.2925, 1.0775, 0.3925, 1.175, 0.49, 1.2725, 0.5875, 1.3725, 0.685, 0, 0.7825, 0.0975, 0.8825, 0.195, 0.98, 0.2925, 1.0775, 0.3925, 1.175, 0.49, 1.2725, 0.5875, 1.3725, 0.685],
  "SoftwareVersions": "syngo MR E11",
  "SpacingBetweenSlices": 2,
  "StationName": "MRC35049",
  "TaskName": "gamepad",
  "TotalReadoutTime": 0.0576811,
  "TxRefAmp": 252.981,
  "WipMemBlock": "31e84726-fecd-43c6-bf06-90194a372ba5||Sequence: R016 ve11c/master r/e634e98; Dec 19 2017 11:00:25 by eja",
  "dcmmeta_affine": [
    [-1.9952760934829712, -0.06479577720165253, 0.12113899737596512, 107.32513427734375],
    [-0.10834495723247528, 1.8264944553375244, -0.8075762391090393, -50.63606643676758],
    [0.08446609228849411, 0.812231183052063, 1.825690507888794, -70.62541961669922],
    [0.0, 0.0, 0.0, 1.0]
],
  "dcmmeta_reorient_transform": [
    [0.0, -1.0, 0.0, 103.0],
    [1.0, 0.0, 0.0, 0.0],
    [0.0, 0.0, 1.0, 0.0],
    [0.0, 0.0, 0.0, 1.0]
],
  "dcmmeta_shape": [104, 104, 60, 207],
  "dcmmeta_slice_dim": 2,
  "dcmmeta_version": 0.6,
  "global": {
    "const": {
      "AcquisitionMatrix": [104, 0, 0, 104],
      "AngioFlag": "N",
      "BitsAllocated": 16,
      "BitsStored": 16,
      "BodyPartExamined": "BRAIN",
      "Columns": 832,
      "EchoNumbers": 1,
      "EchoTime": 37.0,
      "EchoTrainLength": 104,
      "FlipAngle": 52.0,
      "HighBit": 15,
      "ImageOrientationPatient": [0.99763806693048, 0.05417247714834, 0.04223304548369, -0.032397887641, 0.9132472270109, -0.4061155983625],
      "ImagePositionPatient": [-803.34602312502, -841.77440800233, 277.94089488077],
      "ImageType": [
        "ORIGINAL",
        "PRIMARY",
        "P",
        "MB",
        "ND",
        "MOSAIC"
],
      "ImagedNucleus": "1H",
      "ImagingFrequency": 123.258933,
      "InPlanePhaseEncodingDirection": "COL",
      "LargestImagePixelValue": 4095,
      "MRAcquisitionType": "2D",
      "MagneticFieldStrength": 3.0,
      "Manufacturer": "SIEMENS",
      "ManufacturerModelName": "Prisma_fit",
      "Modality": "MR",
      "NumberOfAverages": 1.0,
      "NumberOfPhaseEncodingSteps": 104,
      "PercentPhaseFieldOfView": 100.0,
      "PercentSampling": 100.0,
      "PerformedProcedureStepStartTime": "180350.649000",
      "PhotometricInterpretation": "MONOCHROME2",
      "PixelBandwidth": 2290.0,
      "PixelRepresentation": 0,
      "PixelSpacing": [2.0, 2.0],
      "ProtocolName": "func_task-gamepad_run-2",
      "RepetitionTime": 1490.0,
      "RescaleIntercept": -4096.0,
      "RescaleSlope": 2.0,
      "RescaleType": "US",
      "Rows": 832,
      "SAR": 0.03869959523926,
      "SamplesPerPixel": 1,
      "ScanOptions": "FS",
      "ScanningSequence": "EP",
      "SequenceName": "epfid2d1_104",
      "SequenceVariant": [
        "SK",
        "SS"
],
      "SeriesDescription": "func_task-gamepad_run-2",
      "SeriesNumber": 14,
      "SeriesTime": "181627.520000",
      "SliceLocation": -37.523206406037,
      "SliceThickness": 2.0,
      "SmallestImagePixelValue": 0,
      "SoftwareVersions": "syngo MR E11",
      "SpacingBetweenSlices": 1.9999999487198,
      "SpecificCharacterSet": "ISO_IR 100",
      "StudyID": "1",
      "StudyTime": "180350.558000",
      "TransmitCoilName": "Body",
      "VariableFlipAngleFlag": "N",
      "WindowCenterWidthExplanation": "Algo1",
      "dBdt": 0.0},
    "slices": {}
  },
  "time": {
    "samples": {
      "AcquisitionNumber": [1, 2, 3, 4, 5, 6, 7, 8, 9, 10, 11, 12, 13, 14, 15, 16, 17, 18, 19, 20, 21, 22, 23, 24, 25, 26, 27, 28, 29, 30, 31, 32, 33, 34, 35, 36, 37, 38, 39, 40, 41, 42, 43, 44, 45, 46, 47, 48, 49, 50, 51, 52, 53, 54, 55, 56, 57, 58, 59, 60, 61, 62, 63, 64, 65, 66, 67, 68, 69, 70, 71, 72, 73, 74, 75, 76, 77, 78, 79, 80, 81, 82, 83, 84, 85, 86, 87, 88, 89, 90, 91, 92, 93, 94, 95, 96, 97, 98, 99, 100, 101, 102, 103, 104, 105, 106, 107, 108, 109, 110, 111, 112, 113, 114, 115, 116, 117, 118, 119, 120, 121, 122, 123, 124, 125, 126, 127, 128, 129, 130, 131, 132, 133, 134, 135, 136, 137, 138, 139, 140, 141, 142, 143, 144, 145, 146, 147, 148, 149, 150, 151, 152, 153, 154, 155, 156, 157, 158, 159, 160, 161, 162, 163, 164, 165, 166, 167, 168, 169, 170, 171, 172, 173, 174, 175, 176, 177, 178, 179, 180, 181, 182, 183, 184, 185, 186, 187, 188, 189, 190, 191, 192, 193, 194, 195, 196, 197, 198, 199, 200, 201, 202, 203, 204, 205, 206, 207],
      "AcquisitionTime": ["181512.475000", "181513.965000", "181515.455000", "181516.945000", "181518.435000", "181519.925000", "181521.415000", "181522.905000", "181524.395000", "181525.885000", "181527.375000", "181528.865000", "181530.355000", "181531.845000", "181533.335000", "181534.825000", "181536.315000", "181537.805000", "181539.295000", "181540.785000", "181542.275000", "181543.765000", "181545.255000", "181546.745000", "181548.235000", "181549.725000", "181551.215000", "181552.705000", "181554.195000", "181555.685000", "181557.175000", "181558.665000", "181600.155000", "181601.645000", "181603.135000", "181604.625000", "181606.115000", "181607.605000", "181609.095000", "181610.585000", "181612.075000", "181613.565000", "181615.055000", "181616.545000", "181618.035000", "181619.525000", "181621.015000", "181622.505000", "181623.995000", "181625.485000", "181626.975000", "181628.465000", "181629.955000", "181631.445000", "181632.935000", "181634.425000", "181635.915000", "181637.405000", "181638.895000", "181640.385000", "181641.875000", "181643.365000", "181644.855000", "181646.345000", "181647.835000", "181649.325000", "181650.815000", "181652.305000", "181653.795000", "181655.285000", "181656.775000", "181658.265000", "181659.755000", "181701.245000", "181702.735000", "181704.225000", "181705.715000", "181707.205000", "181708.695000", "181710.185000", "181711.675000", "181713.165000", "181714.655000", "181716.145000", "181717.635000", "181719.125000", "181720.615000", "181722.105000", "181723.595000", "181725.085000", "181726.575000", "181728.065000", "181729.555000", "181731.045000", "181732.535000", "181734.025000", "181735.515000", "181737.005000", "181738.495000", "181739.985000", "181741.475000", "181742.965000", "181744.455000", "181745.945000", "181747.435000", "181748.925000", "181750.415000", "181751.905000", "181753.395000", "181754.885000", "181756.375000", "181757.865000", "181759.355000", "181800.845000", "181802.335000", "181803.825000", "181805.315000", "181806.805000", "181808.295000", "181809.785000", "181811.275000", "181812.765000", "181814.255000", "181815.745000", "181817.235000", "181818.725000", "181820.215000", "181821.705000", "181823.195000", "181824.685000", "181826.175000", "181827.665000", "181829.155000", "181830.645000", "181832.135000", "181833.625000", "181835.115000", "181836.605000", "181838.095000", "181839.585000", "181841.075000", "181842.565000", "181844.055000", "181845.545000", "181847.035000", "181848.525000", "181850.015000", "181851.505000", "181852.995000", "181854.485000", "181855.975000", "181857.465000", "181858.955000", "181900.445000", "181901.935000", "181903.425000", "181904.915000", "181906.405000", "181907.895000", "181909.385000", "181910.875000", "181912.365000", "181913.855000", "181915.345000", "181916.835000", "181918.325000", "181919.815000", "181921.305000", "181922.795000", "181924.285000", "181925.775000", "181927.265000", "181928.755000", "181930.245000", "181931.735000", "181933.225000", "181934.715000", "181936.205000", "181937.695000", "181939.185000", "181940.675000", "181942.165000", "181943.655000", "181945.145000", "181946.635000", "181948.125000", "181949.615000", "181951.105000", "181952.595000", "181954.085000", "181955.575000", "181957.065000", "181958.555000", "182000.045000", "182001.535000", "182003.025000", "182004.515000", "182006.005000", "182007.495000", "182008.985000", "182010.475000", "182011.965000", "182013.455000", "182014.945000", "182016.435000", "182017.925000", "182019.415000"],
      "ContentTime": ["181627.522000", "181627.525000", "181627.537000", "181627.539000", "181627.542000", "181627.544000", "181627.547000", "181627.549000", "181627.552000", "181627.554000", "181627.557000", "181627.559000", "181627.562000", "181627.564000", "181627.567000", "181627.578000", "181627.581000", "181627.583000", "181627.586000", "181627.588000", "181627.591000", "181647.449000", "181647.452000", "181647.454000", "181647.457000", "181647.459000", "181647.462000", "181647.464000", "181647.467000", "181647.469000", "181647.472000", "181647.474000", "181647.477000", "181647.479000", "181647.482000", "181647.484000", "181647.487000", "181647.489000", "181647.492000", "181647.494000", "181647.497000", "181647.499000", "181707.436000", "181707.438000", "181707.441000", "181707.443000", "181707.446000", "181707.448000", "181707.451000", "181707.453000", "181707.456000", "181707.458000", "181707.461000", "181707.463000", "181707.466000", "181707.468000", "181707.471000", "181707.473000", "181707.476000", "181707.478000", "181707.481000", "181707.483000", "181727.445000", "181727.448000", "181727.451000", "181727.453000", "181727.456000", "181727.458000", "181727.461000", "181727.463000", "181727.466000", "181727.468000", "181727.471000", "181727.473000", "181727.476000", "181727.478000", "181727.481000", "181727.483000", "181727.486000", "181727.495000", "181727.497000", "181727.500000", "181747.456000", "181747.459000", "181747.461000", "181747.464000", "181747.466000", "181747.469000", "181747.471000", "181747.474000", "181747.476000", "181747.479000", "181747.481000", "181747.484000", "181747.486000", "181747.489000", "181747.491000", "181747.494000", "181747.496000", "181747.499000", "181747.501000", "181747.504000", "181747.506000", "181827.488000", "181827.490000", "181827.493000", "181827.495000", "181827.498000", "181827.500000", "181827.503000", "181827.505000", "181827.508000", "181827.510000", "181827.513000", "181827.515000", "181827.518000", "181827.520000", "181827.523000", "181827.525000", "181827.528000", "181827.530000", "181827.533000", "181827.535000", "181827.538000", "181827.540000", "181827.543000", "181827.545000", "181827.548000", "181827.550000", "181827.553000", "181907.472000", "181907.475000", "181907.477000", "181907.480000", "181907.482000", "181907.485000", "181907.487000", "181907.490000", "181907.492000", "181907.495000", "181907.497000", "181907.500000", "181907.502000", "181907.505000", "181907.507000", "181907.510000", "181907.512000", "181907.515000", "181907.517000", "181907.520000", "181907.522000", "181907.525000", "181907.531000", "181907.534000", "181907.536000", "181907.539000", "181907.541000", "181947.902000", "181947.904000", "181947.907000", "181947.909000", "181947.912000", "181947.914000", "181947.917000", "181947.919000", "181947.922000", "181947.924000", "181947.927000", "181947.929000", "181947.932000", "181947.934000", "181947.937000", "181947.939000", "181947.942000", "181947.944000", "181947.947000", "181947.949000", "181947.952000", "181947.954000", "181947.957000", "181947.959000", "181947.961000", "181947.964000", "181947.966000", "182021.384000", "182021.387000", "182021.390000", "182021.392000", "182021.395000", "182021.397000", "182021.400000", "182021.402000", "182021.405000", "182021.407000", "182021.410000", "182021.412000", "182021.415000", "182021.417000", "182021.420000", "182021.422000", "182021.429000", "182021.431000", "182021.434000", "182021.436000", "182021.439000", "182021.441000", "182021.444000"],
      "InstanceCreationTime": ["181627.522000", "181627.525000", "181627.537000", "181627.539000", "181627.542000", "181627.544000", "181627.547000", "181627.549000", "181627.552000", "181627.554000", "181627.557000", "181627.559000", "181627.562000", "181627.564000", "181627.567000", "181627.578000", "181627.581000", "181627.583000", "181627.586000", "181627.588000", "181627.591000", "181647.449000", "181647.452000", "181647.454000", "181647.457000", "181647.459000", "181647.462000", "181647.464000", "181647.467000", "181647.469000", "181647.472000", "181647.474000", "181647.477000", "181647.479000", "181647.482000", "181647.484000", "181647.487000", "181647.489000", "181647.492000", "181647.494000", "181647.497000", "181647.499000", "181707.436000", "181707.438000", "181707.441000", "181707.443000", "181707.446000", "181707.448000", "181707.451000", "181707.453000", "181707.456000", "181707.458000", "181707.461000", "181707.463000", "181707.466000", "181707.468000", "181707.471000", "181707.473000", "181707.476000", "181707.478000", "181707.481000", "181707.483000", "181727.445000", "181727.448000", "181727.451000", "181727.453000", "181727.456000", "181727.458000", "181727.461000", "181727.463000", "181727.466000", "181727.468000", "181727.471000", "181727.473000", "181727.476000", "181727.478000", "181727.481000", "181727.483000", "181727.486000", "181727.495000", "181727.497000", "181727.500000", "181747.456000", "181747.459000", "181747.461000", "181747.464000", "181747.466000", "181747.469000", "181747.471000", "181747.474000", "181747.476000", "181747.479000", "181747.481000", "181747.484000", "181747.486000", "181747.489000", "181747.491000", "181747.494000", "181747.496000", "181747.499000", "181747.501000", "181747.504000", "181747.506000", "181827.488000", "181827.490000", "181827.493000", "181827.495000", "181827.498000", "181827.500000", "181827.503000", "181827.505000", "181827.508000", "181827.510000", "181827.513000", "181827.515000", "181827.518000", "181827.520000", "181827.523000", "181827.525000", "181827.528000", "181827.530000", "181827.533000", "181827.535000", "181827.538000", "181827.540000", "181827.543000", "181827.545000", "181827.548000", "181827.550000", "181827.553000", "181907.472000", "181907.475000", "181907.477000", "181907.480000", "181907.482000", "181907.485000", "181907.487000", "181907.490000", "181907.492000", "181907.495000", "181907.497000", "181907.500000", "181907.502000", "181907.505000", "181907.507000", "181907.510000", "181907.512000", "181907.515000", "181907.517000", "181907.520000", "181907.522000", "181907.525000", "181907.531000", "181907.534000", "181907.536000", "181907.539000", "181907.541000", "181947.902000", "181947.904000", "181947.907000", "181947.909000", "181947.912000", "181947.914000", "181947.917000", "181947.919000", "181947.922000", "181947.924000", "181947.927000", "181947.929000", "181947.932000", "181947.934000", "181947.937000", "181947.939000", "181947.942000", "181947.944000", "181947.947000", "181947.949000", "181947.952000", "181947.954000", "181947.957000", "181947.959000", "181947.961000", "181947.964000", "181947.966000", "182021.384000", "182021.387000", "182021.390000", "182021.392000", "182021.395000", "182021.397000", "182021.400000", "182021.402000", "182021.405000", "182021.407000", "182021.410000", "182021.412000", "182021.415000", "182021.417000", "182021.420000", "182021.422000", "182021.429000", "182021.431000", "182021.434000", "182021.436000", "182021.439000", "182021.441000", "182021.444000"],
      "InstanceNumber": [1, 2, 3, 4, 5, 6, 7, 8, 9, 10, 11, 12, 13, 14, 15, 16, 17, 18, 19, 20, 21, 22, 23, 24, 25, 26, 27, 28, 29, 30, 31, 32, 33, 34, 35, 36, 37, 38, 39, 40, 41, 42, 43, 44, 45, 46, 47, 48, 49, 50, 51, 52, 53, 54, 55, 56, 57, 58, 59, 60, 61, 62, 63, 64, 65, 66, 67, 68, 69, 70, 71, 72, 73, 74, 75, 76, 77, 78, 79, 80, 81, 82, 83, 84, 85, 86, 87, 88, 89, 90, 91, 92, 93, 94, 95, 96, 97, 98, 99, 100, 101, 102, 103, 104, 105, 106, 107, 108, 109, 110, 111, 112, 113, 114, 115, 116, 117, 118, 119, 120, 121, 122, 123, 124, 125, 126, 127, 128, 129, 130, 131, 132, 133, 134, 135, 136, 137, 138, 139, 140, 141, 142, 143, 144, 145, 146, 147, 148, 149, 150, 151, 152, 153, 154, 155, 156, 157, 158, 159, 160, 161, 162, 163, 164, 165, 166, 167, 168, 169, 170, 171, 172, 173, 174, 175, 176, 177, 178, 179, 180, 181, 182, 183, 184, 185, 186, 187, 188, 189, 190, 191, 192, 193, 194, 195, 196, 197, 198, 199, 200, 201, 202, 203, 204, 205, 206, 207],
      "WindowCenter": [4868.0, 4868.0, 4870.0, 4864.0, 4864.0, 4866.0, 4870.0, 4868.0, 4864.0, 4840.0, 4862.0, 4868.0, 4876.0, 4872.0, 4872.0, 4866.0, 4862.0, 4858.0, 4864.0, 4868.0, 4876.0, 4874.0, 4870.0, 4842.0, 4868.0, 4868.0, 4864.0, 4860.0, 4840.0, 4866.0, 4870.0, 4870.0, 4868.0, 4844.0, 4866.0, 4872.0, 4866.0, 4864.0, 4866.0, 4868.0, 4840.0, 4864.0, 4864.0, 4868.0, 4868.0, 4866.0, 4842.0, 4840.0, 4862.0, 4868.0, 4868.0, 4870.0, 4866.0, 4864.0, 4864.0, 4864.0, 4868.0, 4864.0, 4866.0, 4864.0, 4870.0, 4870.0, 4868.0, 4866.0, 4868.0, 4868.0, 4870.0, 4868.0, 4864.0, 4868.0, 4874.0, 4868.0, 4872.0, 4872.0, 4868.0, 4866.0, 4870.0, 4872.0, 4872.0, 4866.0, 4866.0, 4868.0, 4870.0, 4866.0, 4868.0, 4868.0, 4868.0, 4870.0, 4868.0, 4870.0, 4868.0, 4866.0, 4868.0, 4866.0, 4860.0, 4868.0, 4870.0, 4868.0, 4862.0, 4864.0, 4870.0, 4870.0, 4872.0, 4872.0, 4868.0, 4866.0, 4868.0, 4864.0, 4860.0, 4870.0, 4870.0, 4868.0, 4868.0, 4872.0, 4864.0, 4862.0, 4866.0, 4866.0, 4864.0, 4860.0, 4860.0, 4870.0, 4868.0, 4866.0, 4864.0, 4868.0, 4868.0, 4870.0, 4870.0, 4870.0, 4868.0, 4866.0, 4862.0, 4868.0, 4870.0, 4866.0, 4866.0, 4872.0, 4868.0, 4872.0, 4868.0, 4870.0, 4868.0, 4862.0, 4842.0, 4846.0, 4866.0, 4842.0, 4844.0, 4860.0, 4860.0, 4860.0, 4836.0, 4866.0, 4868.0, 4874.0, 4872.0, 4842.0, 4866.0, 4842.0, 4864.0, 4858.0, 4862.0, 4862.0, 4856.0, 4862.0, 4870.0, 4872.0, 4870.0, 4872.0, 4868.0, 4866.0, 4860.0, 4862.0, 4862.0, 4860.0, 4864.0, 4870.0, 4868.0, 4866.0, 4866.0, 4840.0, 4866.0, 4870.0, 4868.0, 4864.0, 4866.0, 4864.0, 4864.0, 4862.0, 4860.0, 4866.0, 4878.0, 4868.0, 4870.0, 4866.0, 4864.0, 4860.0, 4866.0, 4864.0, 4866.0, 4864.0, 4870.0, 4868.0, 4868.0, 4866.0, 4864.0],
      "WindowWidth": [18662.0, 18664.0, 18666.0, 18668.0, 18666.0, 18662.0, 18662.0, 18662.0, 18666.0, 18642.0, 18660.0, 18656.0, 18658.0, 18654.0, 18658.0, 18670.0, 18676.0, 18680.0, 18668.0, 18658.0, 18660.0, 18658.0, 18662.0, 18632.0, 18660.0, 18666.0, 18670.0, 18676.0, 18638.0, 18666.0, 18656.0, 18660.0, 18664.0, 18632.0, 18662.0, 18666.0, 18664.0, 18660.0, 18668.0, 18668.0, 18634.0, 18662.0, 18664.0, 18660.0, 18658.0, 18660.0, 18636.0, 18640.0, 18662.0, 18658.0, 18660.0, 18660.0, 18662.0, 18670.0, 18670.0, 18670.0, 18666.0, 18662.0, 18670.0, 18662.0, 18666.0, 18658.0, 18666.0, 18668.0, 18666.0, 18664.0, 18666.0, 18670.0, 18672.0, 18666.0, 18674.0, 18662.0, 18662.0, 18668.0, 18660.0, 18666.0, 18666.0, 18670.0, 18670.0, 18668.0, 18670.0, 18666.0, 18664.0, 18660.0, 18666.0, 18666.0, 18672.0, 18668.0, 18668.0, 18668.0, 18666.0, 18664.0, 18670.0, 18670.0, 18668.0, 18664.0, 18666.0, 18668.0, 18674.0, 18674.0, 18670.0, 18662.0, 18658.0, 18664.0, 18666.0, 18670.0, 18668.0, 18672.0, 18670.0, 18672.0, 18666.0, 18662.0, 18662.0, 18666.0, 18670.0, 18662.0, 18666.0, 18666.0, 18664.0, 18670.0, 18664.0, 18672.0, 18666.0, 18666.0, 18672.0, 18670.0, 18676.0, 18670.0, 18666.0, 18670.0, 18670.0, 18674.0, 18670.0, 18668.0, 18670.0, 18668.0, 18670.0, 18674.0, 18664.0, 18672.0, 18674.0, 18670.0, 18672.0, 18674.0, 18642.0, 18634.0, 18660.0, 18632.0, 18634.0, 18670.0, 18682.0, 18692.0, 18656.0, 18678.0, 18658.0, 18654.0, 18654.0, 18630.0, 18656.0, 18634.0, 18670.0, 18668.0, 18680.0, 18688.0, 18686.0, 18682.0, 18670.0, 18660.0, 18660.0, 18664.0, 18662.0, 18670.0, 18674.0, 18686.0, 18688.0, 18680.0, 18672.0, 18668.0, 18664.0, 18666.0, 18676.0, 18644.0, 18662.0, 18664.0, 18662.0, 18660.0, 18666.0, 18672.0, 18674.0, 18680.0, 18680.0, 18672.0, 18672.0, 18662.0, 18666.0, 18664.0, 18668.0, 18678.0, 18686.0, 18676.0, 18672.0, 18666.0, 18666.0, 18664.0, 18664.0, 18666.0, 18662.0]
    },
    "slices": {}
  }
}