{
  "AcquisitionMatrixPE": 104,
  "AcquisitionNumber": 1,
  "AcquisitionTime": "14:27:21.797500",
  "B0FieldSource": "sub-03_ses-008_task-gamepad_run-02_part-mag_bold.nii.gz",
  "BandwidthPerPixelPhaseEncode": 17.17,
  "BaseResolution": 104,
  "BodyPartExamined": "BRAIN",
  "CoilCombinationMethod": "Sum of Squares",
  "ConsistencyInfo": "N4_VE11C_LATEST_20160120",
  "ConversionSoftware": "dcm2niix",
  "ConversionSoftwareVersion": "v1.0.20211006",
  "DerivedVendorReportedEchoSpacing": 0.000560011,
  "DeviceSerialNumber": "167006",
  "DwellTime": 2.1e-06,
  "EchoTime": 0.037,
  "EchoTrainLength": 104,
  "EffectiveEchoSpacing": 0.000560011,
  "FlipAngle": 52,
  "HeudiconvVersion": "0.10.0",
  "ImageComments": "Unaliased MB4/PE3/LB",
  "ImageOrientationPatientDICOM": [0.999003, -0.00395098, 0.044479, 0.0139496, 0.97384, -0.226805],
  "ImageOrientationText": "Tra>Cor(-13.1)>Sag(2.4)",
  "ImageType": [
    "ORIGINAL",
    "PRIMARY",
    "M",
    "MB",
    "ND",
    "MOSAIC"
],
  "ImagingFrequency": 123.259,
  "InPlanePhaseEncodingDirectionDICOM": "COL",
  "InstitutionAddress": "Chemin Queen-Mary 4565,Montreal,District,CA,H3W 1W5",
  "InstitutionName": "IUGM",
  "InstitutionalDepartmentName": "Department",
  "MRAcquisitionType": "2D",
  "MagneticFieldStrength": 3,
  "Manufacturer": "Siemens",
  "ManufacturersModelName": "Prisma_fit",
  "MatrixCoilMode": "SENSE",
  "Modality": "MR",
  "MultibandAccelerationFactor": 4,
  "PartialFourier": 1,
  "PatientPosition": "HFS",
  "PercentPhaseFOV": 100,
  "PercentSampling": 100,
  "PhaseEncodingDirection": "j",
  "PhaseEncodingSteps": 104,
  "PhaseResolution": 1,
  "PixelBandwidth": 2290,
  "ProcedureStepDescription": "games^gamepad",
  "ProtocolName": "func_task-gamepad_run-2",
  "PulseSequenceDetails": "%CustomerSeq%\\cmrr_mbep2d_bold",
  "ReceiveCoilActiveElements": "HC1-7;NC1,2",
  "ReceiveCoilName": "HeadNeck_64",
  "ReconMatrixPE": 104,
  "RepetitionTime": 1.49,
  "SAR": 0.053314,
  "ScanOptions": "FS",
  "ScanningSequence": "EP",
  "SequenceName": "epfid2d1_104",
  "SequenceVariant": "SK\\SS",
  "SeriesDescription": "func_task-gamepad_run-2",
  "SeriesNumber": 13,
  "ShimSetting": [634, -7233, -8787, 710, 31, -51, 93, -4],
  "SliceThickness": 2,
  "SliceTiming": [0, 0.785, 0.0975, 0.8825, 0.1975, 0.98, 0.295, 1.0775, 0.3925, 1.1775, 0.49, 1.275, 0.5875, 1.3725, 0.6875, 0, 0.785, 0.0975, 0.8825, 0.1975, 0.98, 0.295, 1.0775, 0.3925, 1.1775, 0.49, 1.275, 0.5875, 1.3725, 0.6875, 0, 0.785, 0.0975, 0.8825, 0.1975, 0.98, 0.295, 1.0775, 0.3925, 1.1775, 0.49, 1.275, 0.5875, 1.3725, 0.6875, 0, 0.785, 0.0975, 0.8825, 0.1975, 0.98, 0.295, 1.0775, 0.3925, 1.1775, 0.49, 1.275, 0.5875, 1.3725, 0.6875],
  "SoftwareVersions": "syngo MR E11",
  "SpacingBetweenSlices": 2,
  "StationName": "MRC35049",
  "TaskName": "gamepad",
  "TotalReadoutTime": 0.0576811,
  "TxRefAmp": 239.86,
  "WipMemBlock": "14158126-4cd1-4437-b659-1c8afc9ef082||Sequence: R016 ve11c/master r/e634e98; Dec 19 2017 11:00:25 by eja",
  "dcmmeta_affine": [
    [-1.9980050325393677, 0.027899188920855522, 0.08483869582414627, 105.37598419189453],
    [0.007901959121227264, 1.9476805925369263, -0.4543982744216919, -77.20317077636719],
    [0.0889580100774765, 0.453609824180603, 1.9458481073379517, -61.537025451660156],
    [0.0, 0.0, 0.0, 1.0]
],
  "dcmmeta_reorient_transform": [
    [0.0, -1.0, 0.0, 103.0],
    [1.0, 0.0, 0.0, 0.0],
    [0.0, 0.0, 1.0, 0.0],
    [0.0, 0.0, 0.0, 1.0]
],
  "dcmmeta_shape": [104, 104, 60, 207],
  "dcmmeta_slice_dim": 2,
  "dcmmeta_version": 0.6,
  "global": {
    "const": {
      "AcquisitionMatrix": [104, 0, 0, 104],
      "AngioFlag": "N",
      "BitsAllocated": 16,
      "BitsStored": 16,
      "BodyPartExamined": "BRAIN",
      "Columns": 832,
      "EchoNumbers": 1,
      "EchoTime": 37.0,
      "EchoTrainLength": 104,
      "FlipAngle": 52.0,
      "HighBit": 15,
      "ImageOrientationPatient": [0.99900250638588, -0.0039509796089, 0.04447900622607, 0.01394959471717, 0.9738403065961, -0.2268049074779],
      "ImagePositionPatient": [-845.67872814055, -829.48736402306, 117.91804260272],
      "ImageType": [
        "ORIGINAL",
        "PRIMARY",
        "M",
        "MB",
        "ND",
        "MOSAIC"
],
      "ImagedNucleus": "1H",
      "ImagingFrequency": 123.259109,
      "InPlanePhaseEncodingDirection": "COL",
      "MRAcquisitionType": "2D",
      "MagneticFieldStrength": 3.0,
      "Manufacturer": "SIEMENS",
      "ManufacturerModelName": "Prisma_fit",
      "Modality": "MR",
      "NumberOfAverages": 1.0,
      "NumberOfPhaseEncodingSteps": 104,
      "PercentPhaseFieldOfView": 100.0,
      "PercentSampling": 100.0,
      "PerformedProcedureStepStartTime": "141615.852000",
      "PhotometricInterpretation": "MONOCHROME2",
      "PixelBandwidth": 2290.0,
      "PixelRepresentation": 0,
      "PixelSpacing": [2.0, 2.0],
      "ProtocolName": "func_task-gamepad_run-2",
      "RepetitionTime": 1490.0,
      "Rows": 832,
      "SAR": 0.0533140309346,
      "SamplesPerPixel": 1,
      "ScanOptions": "FS",
      "ScanningSequence": "EP",
      "SequenceName": "epfid2d1_104",
      "SequenceVariant": [
        "SK",
        "SS"
],
      "SeriesDescription": "func_task-gamepad_run-2",
      "SeriesNumber": 13,
      "SeriesTime": "142840.404000",
      "SliceLocation": -37.860375641102,
      "SliceThickness": 2.0,
      "SmallestImagePixelValue": 0,
      "SoftwareVersions": "syngo MR E11",
      "SpacingBetweenSlices": 2.0000000593631,
      "SpecificCharacterSet": "ISO_IR 100",
      "StudyID": "1",
      "StudyTime": "141615.758000",
      "TransmitCoilName": "Body",
      "VariableFlipAngleFlag": "N",
      "WindowCenterWidthExplanation": "Algo1",
      "dBdt": 0.0},
    "slices": {}
  },
  "time": {
    "samples": {
      "AcquisitionNumber": [1, 2, 3, 4, 5, 6, 7, 8, 9, 10, 11, 12, 13, 14, 15, 16, 17, 18, 19, 20, 21, 22, 23, 24, 25, 26, 27, 28, 29, 30, 31, 32, 33, 34, 35, 36, 37, 38, 39, 40, 41, 42, 43, 44, 45, 46, 47, 48, 49, 50, 51, 52, 53, 54, 55, 56, 57, 58, 59, 60, 61, 62, 63, 64, 65, 66, 67, 68, 69, 70, 71, 72, 73, 74, 75, 76, 77, 78, 79, 80, 81, 82, 83, 84, 85, 86, 87, 88, 89, 90, 91, 92, 93, 94, 95, 96, 97, 98, 99, 100, 101, 102, 103, 104, 105, 106, 107, 108, 109, 110, 111, 112, 113, 114, 115, 116, 117, 118, 119, 120, 121, 122, 123, 124, 125, 126, 127, 128, 129, 130, 131, 132, 133, 134, 135, 136, 137, 138, 139, 140, 141, 142, 143, 144, 145, 146, 147, 148, 149, 150, 151, 152, 153, 154, 155, 156, 157, 158, 159, 160, 161, 162, 163, 164, 165, 166, 167, 168, 169, 170, 171, 172, 173, 174, 175, 176, 177, 178, 179, 180, 181, 182, 183, 184, 185, 186, 187, 188, 189, 190, 191, 192, 193, 194, 195, 196, 197, 198, 199, 200, 201, 202, 203, 204, 205, 206, 207],
      "AcquisitionTime": ["142721.797500", "142723.287500", "142724.777500", "142726.267500", "142727.757500", "142729.247500", "142730.737500", "142732.227500", "142733.717500", "142735.207500", "142736.697500", "142738.187500", "142739.677500", "142741.167500", "142742.657500", "142744.147500", "142745.637500", "142747.127500", "142748.617500", "142750.107500", "142751.597500", "142753.087500", "142754.577500", "142756.067500", "142757.557500", "142759.047500", "142800.537500", "142802.027500", "142803.517500", "142805.007500", "142806.497500", "142807.987500", "142809.477500", "142810.967500", "142812.457500", "142813.947500", "142815.437500", "142816.927500", "142818.417500", "142819.907500", "142821.397500", "142822.887500", "142824.377500", "142825.867500", "142827.357500", "142828.847500", "142830.337500", "142831.827500", "142833.317500", "142834.807500", "142836.297500", "142837.787500", "142839.277500", "142840.767500", "142842.257500", "142843.747500", "142845.237500", "142846.727500", "142848.217500", "142849.707500", "142851.197500", "142852.687500", "142854.177500", "142855.667500", "142857.157500", "142858.647500", "142900.137500", "142901.627500", "142903.117500", "142904.607500", "142906.097500", "142907.587500", "142909.077500", "142910.567500", "142912.057500", "142913.547500", "142915.037500", "142916.527500", "142918.017500", "142919.507500", "142920.997500", "142922.487500", "142923.977500", "142925.467500", "142926.957500", "142928.447500", "142929.937500", "142931.427500", "142932.917500", "142934.407500", "142935.897500", "142937.387500", "142938.877500", "142940.367500", "142941.857500", "142943.347500", "142944.837500", "142946.327500", "142947.817500", "142949.307500", "142950.797500", "142952.287500", "142953.777500", "142955.267500", "142956.757500", "142958.247500", "142959.737500", "143001.227500", "143002.717500", "143004.207500", "143005.697500", "143007.187500", "143008.677500", "143010.167500", "143011.657500", "143013.147500", "143014.637500", "143016.127500", "143017.617500", "143019.107500", "143020.597500", "143022.087500", "143023.577500", "143025.067500", "143026.557500", "143028.047500", "143029.537500", "143031.027500", "143032.517500", "143034.007500", "143035.497500", "143036.987500", "143038.477500", "143039.967500", "143041.457500", "143042.947500", "143044.437500", "143045.927500", "143047.417500", "143048.907500", "143050.397500", "143051.887500", "143053.377500", "143054.867500", "143056.357500", "143057.847500", "143059.337500", "143100.827500", "143102.317500", "143103.807500", "143105.297500", "143106.787500", "143108.277500", "143109.767500", "143111.257500", "143112.747500", "143114.237500", "143115.727500", "143117.217500", "143118.707500", "143120.197500", "143121.687500", "143123.177500", "143124.667500", "143126.157500", "143127.647500", "143129.137500", "143130.627500", "143132.117500", "143133.607500", "143135.097500", "143136.587500", "143138.077500", "143139.567500", "143141.057500", "143142.547500", "143144.037500", "143145.527500", "143147.017500", "143148.507500", "143149.997500", "143151.487500", "143152.977500", "143154.467500", "143155.957500", "143157.447500", "143158.937500", "143200.427500", "143201.917500", "143203.407500", "143204.897500", "143206.387500", "143207.877500", "143209.367500", "143210.857500", "143212.347500", "143213.837500", "143215.327500", "143216.817500", "143218.307500", "143219.797500", "143221.287500", "143222.777500", "143224.267500", "143225.757500", "143227.247500", "143228.737500"],
      "ContentTime": ["142840.407000", "142840.410000", "142840.414000", "142840.417000", "142840.420000", "142840.424000", "142840.427000", "142840.430000", "142840.434000", "142840.437000", "142840.440000", "142840.443000", "142840.447000", "142840.450000", "142840.453000", "142840.456000", "142840.460000", "142840.463000", "142840.466000", "142840.469000", "142840.473000", "142840.476000", "142840.479000", "142900.352000", "142900.356000", "142900.359000", "142900.363000", "142900.366000", "142900.369000", "142900.372000", "142900.376000", "142900.379000", "142900.382000", "142900.386000", "142900.389000", "142900.392000", "142900.395000", "142900.399000", "142900.402000", "142900.405000", "142900.409000", "142900.412000", "142900.415000", "142900.418000", "142920.353000", "142920.357000", "142920.360000", "142920.363000", "142920.367000", "142920.370000", "142920.373000", "142920.377000", "142920.380000", "142920.383000", "142920.387000", "142920.390000", "142920.393000", "142920.396000", "142920.400000", "142920.403000", "142920.407000", "142920.410000", "142920.413000", "142920.417000", "142940.353000", "142940.357000", "142940.360000", "142940.364000", "142940.367000", "142940.370000", "142940.373000", "142940.377000", "142940.380000", "142940.384000", "142940.387000", "142940.390000", "142940.394000", "142940.397000", "142940.411000", "142940.414000", "142940.417000", "142940.421000", "142940.424000", "142940.427000", "143000.352000", "143000.356000", "143000.359000", "143000.362000", "143000.366000", "143000.369000", "143000.372000", "143000.376000", "143000.379000", "143000.382000", "143000.386000", "143000.389000", "143000.392000", "143000.396000", "143000.399000", "143000.402000", "143000.406000", "143000.409000", "143000.412000", "143000.416000", "143040.352000", "143040.356000", "143040.359000", "143040.363000", "143040.366000", "143040.369000", "143040.373000", "143040.376000", "143040.379000", "143040.383000", "143040.386000", "143040.393000", "143040.397000", "143040.400000", "143040.403000", "143040.407000", "143040.410000", "143040.413000", "143040.417000", "143040.420000", "143040.423000", "143040.427000", "143040.430000", "143040.433000", "143040.437000", "143040.440000", "143040.443000", "143040.446000", "143120.352000", "143120.356000", "143120.359000", "143120.362000", "143120.366000", "143120.369000", "143120.373000", "143120.376000", "143120.379000", "143120.383000", "143120.386000", "143120.389000", "143120.393000", "143120.396000", "143120.399000", "143120.403000", "143120.406000", "143120.409000", "143120.413000", "143120.416000", "143120.419000", "143120.422000", "143120.426000", "143120.429000", "143120.432000", "143120.436000", "143120.439000", "143200.353000", "143200.357000", "143200.360000", "143200.363000", "143200.367000", "143200.375000", "143200.378000", "143200.381000", "143200.385000", "143200.388000", "143200.391000", "143200.395000", "143200.398000", "143200.401000", "143200.405000", "143200.408000", "143200.411000", "143200.427000", "143200.430000", "143200.433000", "143200.436000", "143200.440000", "143200.443000", "143200.446000", "143200.450000", "143200.453000", "143200.456000", "143230.941000", "143230.944000", "143230.948000", "143230.951000", "143230.954000", "143230.958000", "143230.961000", "143230.964000", "143230.968000", "143230.971000", "143230.975000", "143230.978000", "143230.981000", "143230.985000", "143230.988000", "143230.991000", "143230.995000", "143230.998000", "143231.002000", "143231.006000", "143231.009000"],
      "InstanceCreationTime": ["142840.407000", "142840.410000", "142840.414000", "142840.417000", "142840.420000", "142840.424000", "142840.427000", "142840.430000", "142840.434000", "142840.437000", "142840.440000", "142840.443000", "142840.447000", "142840.450000", "142840.453000", "142840.456000", "142840.460000", "142840.463000", "142840.466000", "142840.469000", "142840.473000", "142840.476000", "142840.479000", "142900.352000", "142900.356000", "142900.359000", "142900.363000", "142900.366000", "142900.369000", "142900.372000", "142900.376000", "142900.379000", "142900.382000", "142900.386000", "142900.389000", "142900.392000", "142900.395000", "142900.399000", "142900.402000", "142900.405000", "142900.409000", "142900.412000", "142900.415000", "142900.418000", "142920.353000", "142920.357000", "142920.360000", "142920.363000", "142920.367000", "142920.370000", "142920.373000", "142920.377000", "142920.380000", "142920.383000", "142920.387000", "142920.390000", "142920.393000", "142920.396000", "142920.400000", "142920.403000", "142920.407000", "142920.410000", "142920.413000", "142920.417000", "142940.353000", "142940.357000", "142940.360000", "142940.364000", "142940.367000", "142940.370000", "142940.373000", "142940.377000", "142940.380000", "142940.384000", "142940.387000", "142940.390000", "142940.394000", "142940.397000", "142940.411000", "142940.414000", "142940.417000", "142940.421000", "142940.424000", "142940.427000", "143000.352000", "143000.356000", "143000.359000", "143000.362000", "143000.366000", "143000.369000", "143000.372000", "143000.376000", "143000.379000", "143000.382000", "143000.386000", "143000.389000", "143000.392000", "143000.396000", "143000.399000", "143000.402000", "143000.406000", "143000.409000", "143000.412000", "143000.416000", "143040.352000", "143040.356000", "143040.359000", "143040.363000", "143040.366000", "143040.369000", "143040.373000", "143040.376000", "143040.379000", "143040.383000", "143040.386000", "143040.393000", "143040.397000", "143040.400000", "143040.403000", "143040.407000", "143040.410000", "143040.413000", "143040.417000", "143040.420000", "143040.423000", "143040.427000", "143040.430000", "143040.433000", "143040.437000", "143040.440000", "143040.443000", "143040.446000", "143120.352000", "143120.356000", "143120.359000", "143120.362000", "143120.366000", "143120.369000", "143120.373000", "143120.376000", "143120.379000", "143120.383000", "143120.386000", "143120.389000", "143120.393000", "143120.396000", "143120.399000", "143120.403000", "143120.406000", "143120.409000", "143120.413000", "143120.416000", "143120.419000", "143120.422000", "143120.426000", "143120.429000", "143120.432000", "143120.436000", "143120.439000", "143200.353000", "143200.357000", "143200.360000", "143200.363000", "143200.367000", "143200.375000", "143200.378000", "143200.381000", "143200.385000", "143200.388000", "143200.391000", "143200.395000", "143200.398000", "143200.401000", "143200.405000", "143200.408000", "143200.411000", "143200.427000", "143200.430000", "143200.433000", "143200.436000", "143200.440000", "143200.443000", "143200.446000", "143200.450000", "143200.453000", "143200.456000", "143230.941000", "143230.944000", "143230.948000", "143230.951000", "143230.954000", "143230.958000", "143230.961000", "143230.964000", "143230.968000", "143230.971000", "143230.975000", "143230.978000", "143230.981000", "143230.985000", "143230.988000", "143230.991000", "143230.995000", "143230.998000", "143231.002000", "143231.006000", "143231.009000"],
      "InstanceNumber": [1, 2, 3, 4, 5, 6, 7, 8, 9, 10, 11, 12, 13, 14, 15, 16, 17, 18, 19, 20, 21, 22, 23, 24, 25, 26, 27, 28, 29, 30, 31, 32, 33, 34, 35, 36, 37, 38, 39, 40, 41, 42, 43, 44, 45, 46, 47, 48, 49, 50, 51, 52, 53, 54, 55, 56, 57, 58, 59, 60, 61, 62, 63, 64, 65, 66, 67, 68, 69, 70, 71, 72, 73, 74, 75, 76, 77, 78, 79, 80, 81, 82, 83, 84, 85, 86, 87, 88, 89, 90, 91, 92, 93, 94, 95, 96, 97, 98, 99, 100, 101, 102, 103, 104, 105, 106, 107, 108, 109, 110, 111, 112, 113, 114, 115, 116, 117, 118, 119, 120, 121, 122, 123, 124, 125, 126, 127, 128, 129, 130, 131, 132, 133, 134, 135, 136, 137, 138, 139, 140, 141, 142, 143, 144, 145, 146, 147, 148, 149, 150, 151, 152, 153, 154, 155, 156, 157, 158, 159, 160, 161, 162, 163, 164, 165, 166, 167, 168, 169, 170, 171, 172, 173, 174, 175, 176, 177, 178, 179, 180, 181, 182, 183, 184, 185, 186, 187, 188, 189, 190, 191, 192, 193, 194, 195, 196, 197, 198, 199, 200, 201, 202, 203, 204, 205, 206, 207],
      "LargestImagePixelValue": [40560, 39458, 38687, 38225, 38554, 38270, 38036, 38348, 38164, 37706, 38008, 37723, 38054, 38600, 38114, 37162, 38061, 37234, 37353, 38053, 37909, 37541, 37432, 37642, 37276, 37002, 37467, 37529, 37562, 37399, 37661, 37067, 37583, 37215, 37441, 37184, 37411, 37009, 37214, 37197, 37557, 37697, 37006, 37741, 37234, 37044, 37318, 37065, 36959, 37312, 37194, 37448, 37079, 37115, 36761, 37455, 37222, 37073, 37703, 37239, 36750, 36828, 37154, 37510, 37052, 37744, 36878, 36801, 37218, 37163, 36740, 37683, 37274, 37027, 37460, 37098, 37013, 37337, 37003, 36708, 36902, 37514, 37300, 37179, 37707, 37601, 37017, 37203, 37252, 37408, 37810, 37639, 37065, 37084, 37964, 37815, 37250, 37390, 37269, 36579, 37129, 37568, 36950, 36935, 37210, 37531, 36943, 37144, 37677, 37467, 37169, 37382, 37241, 37247, 37149, 37811, 36846, 36648, 37557, 37569, 37417, 37781, 37393, 37311, 37143, 37220, 37015, 37031, 37759, 37340, 37449, 38098, 37535, 37288, 37074, 37319, 36978, 37413, 37327, 38199, 38312, 37639, 37068, 37007, 37115, 37201, 37726, 37163, 36870, 37459, 37456, 37231, 37560, 37241, 36879, 36800, 36789, 36913, 36725, 37126, 36671, 37168, 37184, 37463, 37055, 37460, 37390, 37093, 36941, 37644, 37183, 36895, 37031, 37407, 37414, 37222, 37640, 37198, 37268, 37533, 38094, 37914, 37588, 37433, 37209, 37236, 37833, 37123, 37136, 37421, 37810, 37113, 37012, 37304, 37331, 37438, 37686, 37200, 37020, 36961, 37383, 37299, 37157, 37617, 37270, 36854, 37051],
      "WindowCenter": [10113.0, 10080.0, 10043.0, 10018.0, 9997.0, 10005.0, 10003.0, 10029.0, 10042.0, 10043.0, 10026.0, 10014.0, 10013.0, 10020.0, 10033.0, 10027.0, 10042.0, 10022.0, 10025.0, 10037.0, 10033.0, 10044.0, 10034.0, 10043.0, 10029.0, 10026.0, 10001.0, 10001.0, 9998.0, 10009.0, 10015.0, 10015.0, 10014.0, 10008.0, 10032.0, 10034.0, 10035.0, 10006.0, 9999.0, 9982.0, 10045.0, 10021.0, 10018.0, 10022.0, 10009.0, 10008.0, 9995.0, 9999.0, 9984.0, 9988.0, 9989.0, 10004.0, 10014.0, 10015.0, 10003.0, 9975.0, 9973.0, 9978.0, 10012.0, 10024.0, 10048.0, 10012.0, 9995.0, 9999.0, 9992.0, 10011.0, 10010.0, 10012.0, 10009.0, 10000.0, 9977.0, 9994.0, 9991.0, 10009.0, 10022.0, 10015.0, 10025.0, 10023.0, 10000.0, 10002.0, 10002.0, 10026.0, 10006.0, 10008.0, 10013.0, 10015.0, 10008.0, 9987.0, 9980.0, 9985.0, 10012.0, 10019.0, 10019.0, 10008.0, 10018.0, 10022.0, 10010.0, 10014.0, 10008.0, 10011.0, 10010.0, 10030.0, 10011.0, 10021.0, 10008.0, 9999.0, 9990.0, 9989.0, 10011.0, 10034.0, 10018.0, 9996.0, 10007.0, 9997.0, 10005.0, 10010.0, 10010.0, 10001.0, 9997.0, 9979.0, 9985.0, 10001.0, 10000.0, 9999.0, 9990.0, 9998.0, 10008.0, 10018.0, 10008.0, 9984.0, 9954.0, 9974.0, 9966.0, 10003.0, 10004.0, 9996.0, 9982.0, 10017.0, 10021.0, 10063.0, 10061.0, 9975.0, 9934.0, 9907.0, 9903.0, 9930.0, 9955.0, 9960.0, 9952.0, 9949.0, 9945.0, 9942.0, 9964.0, 9968.0, 9989.0, 9998.0, 9990.0, 10007.0, 9990.0, 9980.0, 9962.0, 9957.0, 9980.0, 10003.0, 9996.0, 10002.0, 9987.0, 9987.0, 10004.0, 10003.0, 10006.0, 9998.0, 10006.0, 9993.0, 9995.0, 10010.0, 10017.0, 9997.0, 9968.0, 9976.0, 9981.0, 10014.0, 10029.0, 10038.0, 10024.0, 10025.0, 10009.0, 10000.0, 9998.0, 10011.0, 10011.0, 9998.0, 9995.0, 9969.0, 9974.0, 9980.0, 9999.0, 10003.0, 10013.0, 10004.0, 9988.0, 9985.0, 9987.0, 10009.0, 10014.0, 10017.0, 10012.0],
      "WindowWidth": [21527.0, 21434.0, 21337.0, 21273.0, 21221.0, 21237.0, 21233.0, 21291.0, 21323.0, 21325.0, 21285.0, 21256.0, 21254.0, 21267.0, 21302.0, 21292.0, 21322.0, 21281.0, 21283.0, 21306.0, 21302.0, 21330.0, 21304.0, 21324.0, 21294.0, 21286.0, 21230.0, 21232.0, 21222.0, 21248.0, 21262.0, 21260.0, 21255.0, 21246.0, 21298.0, 21305.0, 21309.0, 21245.0, 21224.0, 21184.0, 21331.0, 21272.0, 21270.0, 21273.0, 21246.0, 21244.0, 21211.0, 21224.0, 21193.0, 21198.0, 21200.0, 21232.0, 21258.0, 21262.0, 21237.0, 21170.0, 21167.0, 21178.0, 21254.0, 21284.0, 21341.0, 21261.0, 21220.0, 21224.0, 21212.0, 21248.0, 21252.0, 21260.0, 21251.0, 21229.0, 21178.0, 21210.0, 21207.0, 21249.0, 21278.0, 21262.0, 21285.0, 21277.0, 21228.0, 21234.0, 21234.0, 21287.0, 21239.0, 21245.0, 21253.0, 21259.0, 21246.0, 21195.0, 21182.0, 21192.0, 21253.0, 21269.0, 21274.0, 21246.0, 21265.0, 21276.0, 21255.0, 21262.0, 21250.0, 21258.0, 21254.0, 21296.0, 21259.0, 21282.0, 21247.0, 21224.0, 21206.0, 21199.0, 21246.0, 21305.0, 21271.0, 21215.0, 21240.0, 21218.0, 21238.0, 21246.0, 21253.0, 21233.0, 21219.0, 21178.0, 21190.0, 21228.0, 21231.0, 21228.0, 21208.0, 21225.0, 21247.0, 21270.0, 21245.0, 21191.0, 21120.0, 21161.0, 21147.0, 21232.0, 21234.0, 21215.0, 21187.0, 21267.0, 21275.0, 21368.0, 21361.0, 21162.0, 21070.0, 21009.0, 21002.0, 21066.0, 21121.0, 21136.0, 21117.0, 21105.0, 21095.0, 21094.0, 21144.0, 21156.0, 21207.0, 21227.0, 21208.0, 21244.0, 21203.0, 21178.0, 21138.0, 21128.0, 21179.0, 21233.0, 21219.0, 21231.0, 21199.0, 21200.0, 21239.0, 21235.0, 21245.0, 21226.0, 21240.0, 21207.0, 21213.0, 21246.0, 21259.0, 21217.0, 21151.0, 21170.0, 21180.0, 21257.0, 21295.0, 21314.0, 21283.0, 21285.0, 21243.0, 21228.0, 21223.0, 21250.0, 21249.0, 21224.0, 21214.0, 21154.0, 21162.0, 21178.0, 21222.0, 21235.0, 21257.0, 21238.0, 21201.0, 21194.0, 21201.0, 21247.0, 21260.0, 21270.0, 21251.0]
    },
    "slices": {}
  }
}