{
  "AcquisitionMatrixPE": 104,
  "AcquisitionNumber": 1,
  "AcquisitionTime": "14:20:55.415000",
  "BandwidthPerPixelPhaseEncode": 17.17,
  "BaseResolution": 104,
  "BodyPartExamined": "BRAIN",
  "CoilCombinationMethod": "Sum of Squares",
  "ConsistencyInfo": "N4_VE11C_LATEST_20160120",
  "ConversionSoftware": "dcm2niix",
  "ConversionSoftwareVersion": "v1.0.20211006",
  "DerivedVendorReportedEchoSpacing": 0.000560011,
  "DeviceSerialNumber": "167006",
  "DwellTime": 2.1e-06,
  "EchoTime": 0.037,
  "EchoTrainLength": 104,
  "EffectiveEchoSpacing": 0.000560011,
  "FlipAngle": 52,
  "HeudiconvVersion": "0.10.0",
  "ImageComments": "Unaliased MB4/PE3/LB",
  "ImageOrientationPatientDICOM": [0.999003, -0.00395098, 0.044479, 0.0139496, 0.97384, -0.226805],
  "ImageOrientationText": "Tra>Cor(-13.1)>Sag(2.4)",
  "ImageType": [
    "ORIGINAL",
    "PRIMARY",
    "M",
    "MB",
    "ND",
    "MOSAIC"
],
  "ImagingFrequency": 123.259,
  "InPlanePhaseEncodingDirectionDICOM": "COL",
  "InstitutionAddress": "Chemin Queen-Mary 4565,Montreal,District,CA,H3W 1W5",
  "InstitutionName": "IUGM",
  "InstitutionalDepartmentName": "Department",
  "MRAcquisitionType": "2D",
  "MagneticFieldStrength": 3,
  "Manufacturer": "Siemens",
  "ManufacturersModelName": "Prisma_fit",
  "MatrixCoilMode": "SENSE",
  "Modality": "MR",
  "MultibandAccelerationFactor": 4,
  "PartialFourier": 1,
  "PatientPosition": "HFS",
  "PercentPhaseFOV": 100,
  "PercentSampling": 100,
  "PhaseEncodingDirection": "j",
  "PhaseEncodingSteps": 104,
  "PhaseResolution": 1,
  "PixelBandwidth": 2290,
  "ProcedureStepDescription": "games^gamepad",
  "ProtocolName": "func_task-gamepad_run-1",
  "PulseSequenceDetails": "%CustomerSeq%\\cmrr_mbep2d_bold",
  "ReceiveCoilActiveElements": "HC1-7;NC1,2",
  "ReceiveCoilName": "HeadNeck_64",
  "ReconMatrixPE": 104,
  "RepetitionTime": 1.49,
  "SAR": 0.053314,
  "ScanOptions": "FS",
  "ScanningSequence": "EP",
  "SequenceName": "epfid2d1_104",
  "SequenceVariant": "SK\\SS",
  "SeriesDescription": "func_task-gamepad_run-1",
  "SeriesNumber": 10,
  "ShimSetting": [634, -7233, -8787, 710, 31, -51, 93, -4],
  "SliceThickness": 2,
  "SliceTiming": [0, 0.7825, 0.0975, 0.8825, 0.195, 0.98, 0.2925, 1.0775, 0.3925, 1.175, 0.49, 1.2725, 0.5875, 1.3725, 0.685, 0, 0.7825, 0.0975, 0.8825, 0.195, 0.98, 0.2925, 1.0775, 0.3925, 1.175, 0.49, 1.2725, 0.5875, 1.3725, 0.685, 0, 0.7825, 0.0975, 0.8825, 0.195, 0.98, 0.2925, 1.0775, 0.3925, 1.175, 0.49, 1.2725, 0.5875, 1.3725, 0.685, 0, 0.7825, 0.0975, 0.8825, 0.195, 0.98, 0.2925, 1.0775, 0.3925, 1.175, 0.49, 1.2725, 0.5875, 1.3725, 0.685],
  "SoftwareVersions": "syngo MR E11",
  "SpacingBetweenSlices": 2,
  "StationName": "MRC35049",
  "TaskName": "gamepad",
  "TotalReadoutTime": 0.0576811,
  "TxRefAmp": 239.86,
  "WipMemBlock": "ed6582ed-25e2-4ec9-900c-e350797739ae||Sequence: R016 ve11c/master r/e634e98; Dec 19 2017 11:00:25 by eja",
  "dcmmeta_affine": [
    [-1.9980050325393677, 0.027899188920855522, 0.08483869582414627, 105.37598419189453],
    [0.007901959121227264, 1.9476805925369263, -0.4543982744216919, -77.20317077636719],
    [0.0889580100774765, 0.453609824180603, 1.9458481073379517, -61.537025451660156],
    [0.0, 0.0, 0.0, 1.0]
],
  "dcmmeta_reorient_transform": [
    [0.0, -1.0, 0.0, 103.0],
    [1.0, 0.0, 0.0, 0.0],
    [0.0, 0.0, 1.0, 0.0],
    [0.0, 0.0, 0.0, 1.0]
],
  "dcmmeta_shape": [104, 104, 60, 207],
  "dcmmeta_slice_dim": 2,
  "dcmmeta_version": 0.6,
  "global": {
    "const": {
      "AcquisitionMatrix": [104, 0, 0, 104],
      "AngioFlag": "N",
      "BitsAllocated": 16,
      "BitsStored": 16,
      "BodyPartExamined": "BRAIN",
      "Columns": 832,
      "EchoNumbers": 1,
      "EchoTime": 37.0,
      "EchoTrainLength": 104,
      "FlipAngle": 52.0,
      "HighBit": 15,
      "ImageOrientationPatient": [0.99900250638588, -0.0039509796089, 0.04447900622607, 0.01394959471717, 0.9738403065961, -0.2268049074779],
      "ImagePositionPatient": [-845.67872814055, -829.48736402306, 117.91804260272],
      "ImageType": [
        "ORIGINAL",
        "PRIMARY",
        "M",
        "MB",
        "ND",
        "MOSAIC"
],
      "ImagedNucleus": "1H",
      "ImagingFrequency": 123.259105,
      "InPlanePhaseEncodingDirection": "COL",
      "MRAcquisitionType": "2D",
      "MagneticFieldStrength": 3.0,
      "Manufacturer": "SIEMENS",
      "ManufacturerModelName": "Prisma_fit",
      "Modality": "MR",
      "NumberOfAverages": 1.0,
      "NumberOfPhaseEncodingSteps": 104,
      "PercentPhaseFieldOfView": 100.0,
      "PercentSampling": 100.0,
      "PerformedProcedureStepStartTime": "141615.852000",
      "PhotometricInterpretation": "MONOCHROME2",
      "PixelBandwidth": 2290.0,
      "PixelRepresentation": 0,
      "PixelSpacing": [2.0, 2.0],
      "ProtocolName": "func_task-gamepad_run-1",
      "RepetitionTime": 1490.0,
      "Rows": 832,
      "SAR": 0.0533140309346,
      "SamplesPerPixel": 1,
      "ScanOptions": "FS",
      "ScanningSequence": "EP",
      "SequenceName": "epfid2d1_104",
      "SequenceVariant": [
        "SK",
        "SS"
],
      "SeriesDescription": "func_task-gamepad_run-1",
      "SeriesNumber": 10,
      "SeriesTime": "142210.641000",
      "SliceLocation": -37.860375641102,
      "SliceThickness": 2.0,
      "SmallestImagePixelValue": 0,
      "SoftwareVersions": "syngo MR E11",
      "SpacingBetweenSlices": 2.0000000593631,
      "SpecificCharacterSet": "ISO_IR 100",
      "StudyID": "1",
      "StudyTime": "141615.758000",
      "TransmitCoilName": "Body",
      "VariableFlipAngleFlag": "N",
      "WindowCenterWidthExplanation": "Algo1",
      "dBdt": 0.0},
    "slices": {}
  },
  "time": {
    "samples": {
      "AcquisitionNumber": [1, 2, 3, 4, 5, 6, 7, 8, 9, 10, 11, 12, 13, 14, 15, 16, 17, 18, 19, 20, 21, 22, 23, 24, 25, 26, 27, 28, 29, 30, 31, 32, 33, 34, 35, 36, 37, 38, 39, 40, 41, 42, 43, 44, 45, 46, 47, 48, 49, 50, 51, 52, 53, 54, 55, 56, 57, 58, 59, 60, 61, 62, 63, 64, 65, 66, 67, 68, 69, 70, 71, 72, 73, 74, 75, 76, 77, 78, 79, 80, 81, 82, 83, 84, 85, 86, 87, 88, 89, 90, 91, 92, 93, 94, 95, 96, 97, 98, 99, 100, 101, 102, 103, 104, 105, 106, 107, 108, 109, 110, 111, 112, 113, 114, 115, 116, 117, 118, 119, 120, 121, 122, 123, 124, 125, 126, 127, 128, 129, 130, 131, 132, 133, 134, 135, 136, 137, 138, 139, 140, 141, 142, 143, 144, 145, 146, 147, 148, 149, 150, 151, 152, 153, 154, 155, 156, 157, 158, 159, 160, 161, 162, 163, 164, 165, 166, 167, 168, 169, 170, 171, 172, 173, 174, 175, 176, 177, 178, 179, 180, 181, 182, 183, 184, 185, 186, 187, 188, 189, 190, 191, 192, 193, 194, 195, 196, 197, 198, 199, 200, 201, 202, 203, 204, 205, 206, 207],
      "AcquisitionTime": ["142055.415000", "142056.905000", "142058.395000", "142059.885000", "142101.375000", "142102.865000", "142104.355000", "142105.845000", "142107.335000", "142108.825000", "142110.315000", "142111.805000", "142113.295000", "142114.785000", "142116.275000", "142117.765000", "142119.255000", "142120.745000", "142122.235000", "142123.725000", "142125.215000", "142126.705000", "142128.195000", "142129.685000", "142131.175000", "142132.665000", "142134.155000", "142135.645000", "142137.135000", "142138.625000", "142140.115000", "142141.605000", "142143.095000", "142144.585000", "142146.075000", "142147.565000", "142149.055000", "142150.545000", "142152.035000", "142153.525000", "142155.015000", "142156.505000", "142157.995000", "142159.485000", "142200.975000", "142202.465000", "142203.955000", "142205.445000", "142206.935000", "142208.425000", "142209.915000", "142211.405000", "142212.895000", "142214.385000", "142215.875000", "142217.365000", "142218.855000", "142220.345000", "142221.835000", "142223.325000", "142224.815000", "142226.305000", "142227.795000", "142229.285000", "142230.775000", "142232.265000", "142233.755000", "142235.245000", "142236.735000", "142238.225000", "142239.715000", "142241.205000", "142242.695000", "142244.185000", "142245.675000", "142247.165000", "142248.655000", "142250.145000", "142251.635000", "142253.125000", "142254.615000", "142256.105000", "142257.595000", "142259.085000", "142300.575000", "142302.065000", "142303.555000", "142305.045000", "142306.535000", "142308.025000", "142309.515000", "142311.005000", "142312.495000", "142313.985000", "142315.475000", "142316.965000", "142318.455000", "142319.945000", "142321.435000", "142322.925000", "142324.415000", "142325.905000", "142327.395000", "142328.885000", "142330.375000", "142331.865000", "142333.355000", "142334.845000", "142336.335000", "142337.825000", "142339.315000", "142340.805000", "142342.295000", "142343.785000", "142345.275000", "142346.765000", "142348.255000", "142349.745000", "142351.235000", "142352.725000", "142354.215000", "142355.705000", "142357.195000", "142358.685000", "142400.175000", "142401.665000", "142403.155000", "142404.645000", "142406.135000", "142407.625000", "142409.115000", "142410.605000", "142412.095000", "142413.585000", "142415.075000", "142416.565000", "142418.055000", "142419.545000", "142421.035000", "142422.525000", "142424.015000", "142425.505000", "142426.995000", "142428.485000", "142429.975000", "142431.465000", "142432.955000", "142434.445000", "142435.935000", "142437.425000", "142438.915000", "142440.405000", "142441.895000", "142443.385000", "142444.875000", "142446.365000", "142447.855000", "142449.345000", "142450.835000", "142452.325000", "142453.815000", "142455.305000", "142456.795000", "142458.285000", "142459.775000", "142501.265000", "142502.755000", "142504.245000", "142505.735000", "142507.225000", "142508.715000", "142510.205000", "142511.695000", "142513.185000", "142514.675000", "142516.165000", "142517.655000", "142519.145000", "142520.635000", "142522.125000", "142523.615000", "142525.105000", "142526.595000", "142528.085000", "142529.575000", "142531.065000", "142532.555000", "142534.045000", "142535.535000", "142537.025000", "142538.515000", "142540.005000", "142541.495000", "142542.985000", "142544.475000", "142545.965000", "142547.455000", "142548.945000", "142550.435000", "142551.925000", "142553.415000", "142554.905000", "142556.395000", "142557.885000", "142559.375000", "142600.865000", "142602.355000"],
      "ContentTime": ["142210.644000", "142210.648000", "142210.651000", "142210.655000", "142210.658000", "142210.661000", "142210.665000", "142210.668000", "142210.671000", "142210.675000", "142210.688000", "142210.692000", "142210.695000", "142210.712000", "142210.715000", "142210.719000", "142210.722000", "142210.725000", "142210.728000", "142210.732000", "142230.611000", "142230.615000", "142230.618000", "142230.621000", "142230.625000", "142230.628000", "142230.631000", "142230.635000", "142230.638000", "142230.641000", "142230.645000", "142230.649000", "142230.652000", "142230.655000", "142230.659000", "142230.662000", "142230.665000", "142230.668000", "142230.672000", "142230.675000", "142250.611000", "142250.623000", "142250.626000", "142250.629000", "142250.633000", "142250.636000", "142250.639000", "142250.643000", "142250.646000", "142250.649000", "142250.652000", "142250.656000", "142250.659000", "142250.662000", "142250.666000", "142250.669000", "142250.672000", "142250.676000", "142250.679000", "142250.682000", "142310.610000", "142310.614000", "142310.617000", "142310.620000", "142310.624000", "142310.627000", "142310.630000", "142310.634000", "142310.637000", "142310.640000", "142310.644000", "142310.647000", "142310.651000", "142310.654000", "142310.657000", "142310.661000", "142310.664000", "142310.668000", "142310.671000", "142310.674000", "142310.678000", "142330.611000", "142330.615000", "142330.618000", "142330.621000", "142330.625000", "142330.628000", "142330.631000", "142330.635000", "142330.638000", "142330.641000", "142330.645000", "142330.648000", "142330.651000", "142330.655000", "142330.658000", "142330.661000", "142330.665000", "142330.668000", "142330.671000", "142330.675000", "142410.611000", "142410.615000", "142410.629000", "142410.632000", "142410.636000", "142410.639000", "142410.642000", "142410.646000", "142410.649000", "142410.652000", "142410.656000", "142410.659000", "142410.663000", "142410.666000", "142410.669000", "142410.673000", "142410.676000", "142410.679000", "142410.683000", "142410.686000", "142410.689000", "142410.693000", "142410.696000", "142410.699000", "142410.703000", "142410.706000", "142410.709000", "142410.713000", "142410.716000", "142450.611000", "142450.615000", "142450.618000", "142450.622000", "142450.625000", "142450.628000", "142450.632000", "142450.635000", "142450.638000", "142450.642000", "142450.645000", "142450.648000", "142450.652000", "142450.655000", "142450.658000", "142450.662000", "142450.665000", "142450.668000", "142450.672000", "142450.675000", "142450.678000", "142450.682000", "142450.685000", "142450.689000", "142450.692000", "142450.695000", "142450.699000", "142530.610000", "142530.614000", "142530.617000", "142530.620000", "142530.624000", "142530.627000", "142530.630000", "142530.634000", "142530.637000", "142530.640000", "142530.644000", "142530.647000", "142530.650000", "142530.654000", "142530.657000", "142530.660000", "142530.664000", "142530.676000", "142530.679000", "142530.682000", "142530.686000", "142530.689000", "142530.692000", "142530.696000", "142530.699000", "142530.703000", "142530.706000", "142550.611000", "142550.615000", "142550.618000", "142550.622000", "142550.625000", "142550.628000", "142550.632000", "142550.635000", "142550.638000", "142550.642000", "142550.645000", "142550.648000", "142550.652000", "142604.362000", "142604.374000", "142604.377000", "142604.381000", "142604.394000", "142604.397000", "142604.401000", "142604.404000", "142604.408000", "142604.411000"],
      "InstanceCreationTime": ["142210.644000", "142210.648000", "142210.651000", "142210.655000", "142210.658000", "142210.661000", "142210.665000", "142210.668000", "142210.671000", "142210.675000", "142210.688000", "142210.692000", "142210.695000", "142210.712000", "142210.715000", "142210.719000", "142210.722000", "142210.725000", "142210.728000", "142210.732000", "142230.611000", "142230.615000", "142230.618000", "142230.621000", "142230.625000", "142230.628000", "142230.631000", "142230.635000", "142230.638000", "142230.641000", "142230.645000", "142230.649000", "142230.652000", "142230.655000", "142230.659000", "142230.662000", "142230.665000", "142230.668000", "142230.672000", "142230.675000", "142250.611000", "142250.623000", "142250.626000", "142250.629000", "142250.633000", "142250.636000", "142250.639000", "142250.643000", "142250.646000", "142250.649000", "142250.652000", "142250.656000", "142250.659000", "142250.662000", "142250.666000", "142250.669000", "142250.672000", "142250.676000", "142250.679000", "142250.682000", "142310.610000", "142310.614000", "142310.617000", "142310.620000", "142310.624000", "142310.627000", "142310.630000", "142310.634000", "142310.637000", "142310.640000", "142310.644000", "142310.647000", "142310.651000", "142310.654000", "142310.657000", "142310.661000", "142310.664000", "142310.668000", "142310.671000", "142310.674000", "142310.678000", "142330.611000", "142330.615000", "142330.618000", "142330.621000", "142330.625000", "142330.628000", "142330.631000", "142330.635000", "142330.638000", "142330.641000", "142330.645000", "142330.648000", "142330.651000", "142330.655000", "142330.658000", "142330.661000", "142330.665000", "142330.668000", "142330.671000", "142330.675000", "142410.611000", "142410.615000", "142410.629000", "142410.632000", "142410.636000", "142410.639000", "142410.642000", "142410.646000", "142410.649000", "142410.652000", "142410.656000", "142410.659000", "142410.663000", "142410.666000", "142410.669000", "142410.673000", "142410.676000", "142410.679000", "142410.683000", "142410.686000", "142410.689000", "142410.693000", "142410.696000", "142410.699000", "142410.703000", "142410.706000", "142410.709000", "142410.713000", "142410.716000", "142450.611000", "142450.615000", "142450.618000", "142450.622000", "142450.625000", "142450.628000", "142450.632000", "142450.635000", "142450.638000", "142450.642000", "142450.645000", "142450.648000", "142450.652000", "142450.655000", "142450.658000", "142450.662000", "142450.665000", "142450.668000", "142450.672000", "142450.675000", "142450.678000", "142450.682000", "142450.685000", "142450.689000", "142450.692000", "142450.695000", "142450.699000", "142530.610000", "142530.614000", "142530.617000", "142530.620000", "142530.624000", "142530.627000", "142530.630000", "142530.634000", "142530.637000", "142530.640000", "142530.644000", "142530.647000", "142530.650000", "142530.654000", "142530.657000", "142530.660000", "142530.664000", "142530.676000", "142530.679000", "142530.682000", "142530.686000", "142530.689000", "142530.692000", "142530.696000", "142530.699000", "142530.703000", "142530.706000", "142550.611000", "142550.615000", "142550.618000", "142550.622000", "142550.625000", "142550.628000", "142550.632000", "142550.635000", "142550.638000", "142550.642000", "142550.645000", "142550.648000", "142550.652000", "142604.362000", "142604.374000", "142604.377000", "142604.381000", "142604.394000", "142604.397000", "142604.401000", "142604.404000", "142604.408000", "142604.411000"],
      "InstanceNumber": [1, 2, 3, 4, 5, 6, 7, 8, 9, 10, 11, 12, 13, 14, 15, 16, 17, 18, 19, 20, 21, 22, 23, 24, 25, 26, 27, 28, 29, 30, 31, 32, 33, 34, 35, 36, 37, 38, 39, 40, 41, 42, 43, 44, 45, 46, 47, 48, 49, 50, 51, 52, 53, 54, 55, 56, 57, 58, 59, 60, 61, 62, 63, 64, 65, 66, 67, 68, 69, 70, 71, 72, 73, 74, 75, 76, 77, 78, 79, 80, 81, 82, 83, 84, 85, 86, 87, 88, 89, 90, 91, 92, 93, 94, 95, 96, 97, 98, 99, 100, 101, 102, 103, 104, 105, 106, 107, 108, 109, 110, 111, 112, 113, 114, 115, 116, 117, 118, 119, 120, 121, 122, 123, 124, 125, 126, 127, 128, 129, 130, 131, 132, 133, 134, 135, 136, 137, 138, 139, 140, 141, 142, 143, 144, 145, 146, 147, 148, 149, 150, 151, 152, 153, 154, 155, 156, 157, 158, 159, 160, 161, 162, 163, 164, 165, 166, 167, 168, 169, 170, 171, 172, 173, 174, 175, 176, 177, 178, 179, 180, 181, 182, 183, 184, 185, 186, 187, 188, 189, 190, 191, 192, 193, 194, 195, 196, 197, 198, 199, 200, 201, 202, 203, 204, 205, 206, 207],
      "LargestImagePixelValue": [41228, 39887, 39437, 39042, 38954, 38663, 38458, 38991, 38588, 38205, 38646, 38303, 38232, 38422, 38316, 38397, 38254, 38270, 37869, 38471, 38183, 38535, 38322, 38202, 38269, 38396, 38608, 39046, 38316, 38120, 38818, 37957, 38590, 38116, 38067, 38433, 37981, 38152, 37769, 38461, 37982, 37836, 38714, 37956, 38410, 38324, 38069, 37911, 38091, 38493, 38198, 38677, 38359, 38044, 37755, 37951, 38224, 37831, 38001, 37742, 37887, 38075, 37759, 38004, 37927, 37934, 37900, 37799, 37867, 37789, 38006, 37784, 37593, 38116, 37875, 38048, 37800, 37440, 37416, 38016, 37642, 37704, 37748, 37824, 38011, 37887, 38159, 38144, 37716, 37977, 37882, 37670, 37931, 37735, 37858, 37438, 37799, 37855, 37774, 37592, 37893, 37781, 37859, 37469, 37838, 37635, 37970, 37638, 37650, 37555, 37884, 37539, 37453, 37172, 37409, 37170, 37123, 37303, 37583, 37383, 37277, 37361, 37550, 37701, 37637, 37397, 37529, 37742, 37460, 37803, 37741, 37703, 37365, 37525, 37391, 37108, 37402, 37198, 37407, 37573, 37450, 37104, 37158, 37363, 37584, 37408, 37331, 37256, 37148, 37259, 37424, 36926, 37137, 37263, 37539, 37388, 37206, 37024, 37097, 37698, 37148, 37592, 37244, 37133, 37006, 37028, 37304, 37589, 37385, 37770, 37206, 37201, 37790, 37535, 37293, 36843, 37566, 36657, 37023, 37629, 37327, 37385, 37238, 37340, 37230, 37320, 36670, 37506, 36947, 36897, 37625, 38022, 37267, 36955, 37520, 36945, 37046, 37678, 37080, 36993, 37703, 36875, 37246, 37049, 37065, 37258, 37057],
      "WindowCenter": [10120.0, 10097.0, 10088.0, 10048.0, 10055.0, 10047.0, 10043.0, 10045.0, 10057.0, 10052.0, 10081.0, 10076.0, 10078.0, 10084.0, 10085.0, 10094.0, 10095.0, 10089.0, 10063.0, 10059.0, 10057.0, 10067.0, 10060.0, 10062.0, 10077.0, 10068.0, 10068.0, 10066.0, 10059.0, 10059.0, 10072.0, 10062.0, 10068.0, 10046.0, 10045.0, 10059.0, 10060.0, 10062.0, 10046.0, 10044.0, 10036.0, 10044.0, 10056.0, 10045.0, 10060.0, 10052.0, 10035.0, 10046.0, 10051.0, 10065.0, 10071.0, 10057.0, 10051.0, 10051.0, 10080.0, 10090.0, 10099.0, 10074.0, 10061.0, 10047.0, 10044.0, 10051.0, 10038.0, 10053.0, 10060.0, 10063.0, 10057.0, 10037.0, 10030.0, 10029.0, 10049.0, 10046.0, 10044.0, 10072.0, 10049.0, 10062.0, 10053.0, 10067.0, 10053.0, 10071.0, 10039.0, 10047.0, 10053.0, 10064.0, 10055.0, 10047.0, 10044.0, 10053.0, 10063.0, 10072.0, 10073.0, 10075.0, 10062.0, 10040.0, 10046.0, 10047.0, 10053.0, 10039.0, 10049.0, 10032.0, 10047.0, 10055.0, 10050.0, 10037.0, 10016.0, 10021.0, 10028.0, 10059.0, 10051.0, 10053.0, 10048.0, 10052.0, 10050.0, 10053.0, 10060.0, 10059.0, 10070.0, 10069.0, 10071.0, 10051.0, 10029.0, 10024.0, 10032.0, 10066.0, 10058.0, 10045.0, 10025.0, 10031.0, 10028.0, 10052.0, 10054.0, 10046.0, 10042.0, 10028.0, 10031.0, 10024.0, 10029.0, 10015.0, 10037.0, 10046.0, 10054.0, 10041.0, 10025.0, 10030.0, 10038.0, 10048.0, 10047.0, 10050.0, 10061.0, 10060.0, 10049.0, 10037.0, 10042.0, 10030.0, 10040.0, 10047.0, 10057.0, 10050.0, 10043.0, 10028.0, 10013.0, 10026.0, 10038.0, 10050.0, 10036.0, 10026.0, 10015.0, 10039.0, 10064.0, 10072.0, 10045.0, 10025.0, 10011.0, 10000.0, 10035.0, 10050.0, 10057.0, 10052.0, 10034.0, 10015.0, 10004.0, 10030.0, 10041.0, 10051.0, 10036.0, 10050.0, 10050.0, 10058.0, 10034.0, 10013.0, 10020.0, 10027.0, 10040.0, 10034.0, 10029.0, 10016.0, 10026.0, 10027.0, 10014.0, 10043.0, 10038.0, 10027.0, 10040.0, 10041.0, 10042.0, 10029.0, 10017.0],
      "WindowWidth": [21545.0, 21473.0, 21441.0, 21342.0, 21353.0, 21334.0, 21327.0, 21328.0, 21358.0, 21350.0, 21410.0, 21402.0, 21409.0, 21420.0, 21424.0, 21445.0, 21449.0, 21434.0, 21374.0, 21359.0, 21356.0, 21381.0, 21367.0, 21369.0, 21403.0, 21382.0, 21382.0, 21376.0, 21361.0, 21360.0, 21387.0, 21370.0, 21383.0, 21334.0, 21334.0, 21362.0, 21363.0, 21367.0, 21334.0, 21325.0, 21308.0, 21328.0, 21354.0, 21333.0, 21364.0, 21347.0, 21306.0, 21333.0, 21344.0, 21373.0, 21391.0, 21355.0, 21342.0, 21343.0, 21413.0, 21437.0, 21457.0, 21400.0, 21365.0, 21334.0, 21329.0, 21345.0, 21318.0, 21349.0, 21364.0, 21375.0, 21359.0, 21312.0, 21299.0, 21296.0, 21337.0, 21332.0, 21334.0, 21395.0, 21345.0, 21371.0, 21348.0, 21384.0, 21354.0, 21388.0, 21317.0, 21336.0, 21347.0, 21373.0, 21351.0, 21335.0, 21326.0, 21349.0, 21373.0, 21393.0, 21397.0, 21399.0, 21366.0, 21317.0, 21332.0, 21336.0, 21348.0, 21317.0, 21339.0, 21300.0, 21332.0, 21350.0, 21339.0, 21312.0, 21264.0, 21275.0, 21290.0, 21363.0, 21346.0, 21352.0, 21335.0, 21349.0, 21344.0, 21353.0, 21368.0, 21367.0, 21394.0, 21389.0, 21394.0, 21346.0, 21296.0, 21284.0, 21300.0, 21378.0, 21358.0, 21333.0, 21284.0, 21296.0, 21288.0, 21340.0, 21348.0, 21330.0, 21323.0, 21286.0, 21296.0, 21283.0, 21291.0, 21264.0, 21312.0, 21333.0, 21349.0, 21323.0, 21287.0, 21294.0, 21312.0, 21338.0, 21332.0, 21342.0, 21370.0, 21367.0, 21340.0, 21315.0, 21323.0, 21296.0, 21319.0, 21335.0, 21359.0, 21343.0, 21327.0, 21288.0, 21255.0, 21281.0, 21312.0, 21344.0, 21313.0, 21290.0, 21261.0, 21315.0, 21375.0, 21389.0, 21331.0, 21284.0, 21247.0, 21224.0, 21306.0, 21344.0, 21358.0, 21349.0, 21306.0, 21259.0, 21235.0, 21295.0, 21325.0, 21345.0, 21311.0, 21341.0, 21343.0, 21360.0, 21306.0, 21262.0, 21270.0, 21283.0, 21320.0, 21309.0, 21291.0, 21265.0, 21286.0, 21284.0, 21259.0, 21326.0, 21311.0, 21292.0, 21319.0, 21321.0, 21322.0, 21291.0, 21264.0]
    },
    "slices": {}
  }
}