{
  "AcquisitionMatrixPE": 104,
  "AcquisitionNumber": 1,
  "AcquisitionTime": "14:20:55.415000",
  "BandwidthPerPixelPhaseEncode": 17.17,
  "BaseResolution": 104,
  "BodyPartExamined": "BRAIN",
  "CoilCombinationMethod": "Sum of Squares",
  "ConsistencyInfo": "N4_VE11C_LATEST_20160120",
  "ConversionSoftware": "dcm2niix",
  "ConversionSoftwareVersion": "v1.0.20211006",
  "DerivedVendorReportedEchoSpacing": 0.000560011,
  "DeviceSerialNumber": "167006",
  "DwellTime": 2.1e-06,
  "EchoTime": 0.037,
  "EchoTime1": 0.037,
  "EchoTime2": 0.001,
  "EchoTrainLength": 104,
  "EffectiveEchoSpacing": 0.000560011,
  "FlipAngle": 52,
  "HeudiconvVersion": "0.10.0",
  "ImageComments": "Unaliased MB4/PE3/LB",
  "ImageOrientationPatientDICOM": [0.999003, -0.00395098, 0.044479, 0.0139496, 0.97384, -0.226805],
  "ImageOrientationText": "Tra>Cor(-13.1)>Sag(2.4)",
  "ImageType": [
    "ORIGINAL",
    "PRIMARY",
    "P",
    "MB",
    "ND",
    "MOSAIC",
    "PHASE"
],
  "ImagingFrequency": 123.259,
  "InPlanePhaseEncodingDirectionDICOM": "COL",
  "InstitutionAddress": "Chemin Queen-Mary 4565,Montreal,District,CA,H3W 1W5",
  "InstitutionName": "IUGM",
  "InstitutionalDepartmentName": "Department",
  "MRAcquisitionType": "2D",
  "MagneticFieldStrength": 3,
  "Manufacturer": "Siemens",
  "ManufacturersModelName": "Prisma_fit",
  "MatrixCoilMode": "SENSE",
  "Modality": "MR",
  "MultibandAccelerationFactor": 4,
  "PartialFourier": 1,
  "PatientPosition": "HFS",
  "PercentPhaseFOV": 100,
  "PercentSampling": 100,
  "PhaseEncodingDirection": "j",
  "PhaseEncodingSteps": 104,
  "PhaseResolution": 1,
  "PixelBandwidth": 2290,
  "ProcedureStepDescription": "games^gamepad",
  "ProtocolName": "func_task-gamepad_run-1",
  "PulseSequenceDetails": "%CustomerSeq%\\cmrr_mbep2d_bold",
  "ReceiveCoilActiveElements": "HC1-7;NC1,2",
  "ReceiveCoilName": "HeadNeck_64",
  "ReconMatrixPE": 104,
  "RepetitionTime": 1.49,
  "SAR": 0.053314,
  "ScanOptions": "FS",
  "ScanningSequence": "EP",
  "SequenceName": "epfid2d1_104",
  "SequenceVariant": "SK\\SS",
  "SeriesDescription": "func_task-gamepad_run-1",
  "SeriesNumber": 11,
  "ShimSetting": [634, -7233, -8787, 710, 31, -51, 93, -4],
  "SliceThickness": 2,
  "SliceTiming": [0, 0.7825, 0.0975, 0.8825, 0.195, 0.98, 0.2925, 1.0775, 0.3925, 1.175, 0.49, 1.2725, 0.5875, 1.3725, 0.685, 0, 0.7825, 0.0975, 0.8825, 0.195, 0.98, 0.2925, 1.0775, 0.3925, 1.175, 0.49, 1.2725, 0.5875, 1.3725, 0.685, 0, 0.7825, 0.0975, 0.8825, 0.195, 0.98, 0.2925, 1.0775, 0.3925, 1.175, 0.49, 1.2725, 0.5875, 1.3725, 0.685, 0, 0.7825, 0.0975, 0.8825, 0.195, 0.98, 0.2925, 1.0775, 0.3925, 1.175, 0.49, 1.2725, 0.5875, 1.3725, 0.685],
  "SoftwareVersions": "syngo MR E11",
  "SpacingBetweenSlices": 2,
  "StationName": "MRC35049",
  "TaskName": "gamepad",
  "TotalReadoutTime": 0.0576811,
  "TxRefAmp": 239.86,
  "WipMemBlock": "ed6582ed-25e2-4ec9-900c-e350797739ae||Sequence: R016 ve11c/master r/e634e98; Dec 19 2017 11:00:25 by eja",
  "dcmmeta_affine": [
    [-1.9980050325393677, 0.027899188920855522, 0.08483869582414627, 105.37598419189453],
    [0.007901959121227264, 1.9476805925369263, -0.4543982744216919, -77.20317077636719],
    [0.0889580100774765, 0.453609824180603, 1.9458481073379517, -61.537025451660156],
    [0.0, 0.0, 0.0, 1.0]
],
  "dcmmeta_reorient_transform": [
    [0.0, -1.0, 0.0, 103.0],
    [1.0, 0.0, 0.0, 0.0],
    [0.0, 0.0, 1.0, 0.0],
    [0.0, 0.0, 0.0, 1.0]
],
  "dcmmeta_shape": [104, 104, 60, 207],
  "dcmmeta_slice_dim": 2,
  "dcmmeta_version": 0.6,
  "global": {
    "const": {
      "AcquisitionMatrix": [104, 0, 0, 104],
      "AngioFlag": "N",
      "BitsAllocated": 16,
      "BitsStored": 16,
      "BodyPartExamined": "BRAIN",
      "Columns": 832,
      "EchoNumbers": 1,
      "EchoTime": 37.0,
      "EchoTrainLength": 104,
      "FlipAngle": 52.0,
      "HighBit": 15,
      "ImageOrientationPatient": [0.99900250638588, -0.0039509796089, 0.04447900622607, 0.01394959471717, 0.9738403065961, -0.2268049074779],
      "ImagePositionPatient": [-845.67872814055, -829.48736402306, 117.91804260272],
      "ImageType": [
        "ORIGINAL",
        "PRIMARY",
        "P",
        "MB",
        "ND",
        "MOSAIC"
],
      "ImagedNucleus": "1H",
      "ImagingFrequency": 123.259105,
      "InPlanePhaseEncodingDirection": "COL",
      "LargestImagePixelValue": 4095,
      "MRAcquisitionType": "2D",
      "MagneticFieldStrength": 3.0,
      "Manufacturer": "SIEMENS",
      "ManufacturerModelName": "Prisma_fit",
      "Modality": "MR",
      "NumberOfAverages": 1.0,
      "NumberOfPhaseEncodingSteps": 104,
      "PercentPhaseFieldOfView": 100.0,
      "PercentSampling": 100.0,
      "PerformedProcedureStepStartTime": "141615.852000",
      "PhotometricInterpretation": "MONOCHROME2",
      "PixelBandwidth": 2290.0,
      "PixelRepresentation": 0,
      "PixelSpacing": [2.0, 2.0],
      "ProtocolName": "func_task-gamepad_run-1",
      "RepetitionTime": 1490.0,
      "RescaleIntercept": -4096.0,
      "RescaleSlope": 2.0,
      "RescaleType": "US",
      "Rows": 832,
      "SAR": 0.0533140309346,
      "SamplesPerPixel": 1,
      "ScanOptions": "FS",
      "ScanningSequence": "EP",
      "SequenceName": "epfid2d1_104",
      "SequenceVariant": [
        "SK",
        "SS"
],
      "SeriesDescription": "func_task-gamepad_run-1",
      "SeriesNumber": 11,
      "SeriesTime": "142210.774000",
      "SliceLocation": -37.860375641102,
      "SliceThickness": 2.0,
      "SmallestImagePixelValue": 0,
      "SoftwareVersions": "syngo MR E11",
      "SpacingBetweenSlices": 2.0000000593631,
      "SpecificCharacterSet": "ISO_IR 100",
      "StudyID": "1",
      "StudyTime": "141615.758000",
      "TransmitCoilName": "Body",
      "VariableFlipAngleFlag": "N",
      "WindowCenterWidthExplanation": "Algo1",
      "dBdt": 0.0},
    "slices": {}
  },
  "time": {
    "samples": {
      "AcquisitionNumber": [1, 2, 3, 4, 5, 6, 7, 8, 9, 10, 11, 12, 13, 14, 15, 16, 17, 18, 19, 20, 21, 22, 23, 24, 25, 26, 27, 28, 29, 30, 31, 32, 33, 34, 35, 36, 37, 38, 39, 40, 41, 42, 43, 44, 45, 46, 47, 48, 49, 50, 51, 52, 53, 54, 55, 56, 57, 58, 59, 60, 61, 62, 63, 64, 65, 66, 67, 68, 69, 70, 71, 72, 73, 74, 75, 76, 77, 78, 79, 80, 81, 82, 83, 84, 85, 86, 87, 88, 89, 90, 91, 92, 93, 94, 95, 96, 97, 98, 99, 100, 101, 102, 103, 104, 105, 106, 107, 108, 109, 110, 111, 112, 113, 114, 115, 116, 117, 118, 119, 120, 121, 122, 123, 124, 125, 126, 127, 128, 129, 130, 131, 132, 133, 134, 135, 136, 137, 138, 139, 140, 141, 142, 143, 144, 145, 146, 147, 148, 149, 150, 151, 152, 153, 154, 155, 156, 157, 158, 159, 160, 161, 162, 163, 164, 165, 166, 167, 168, 169, 170, 171, 172, 173, 174, 175, 176, 177, 178, 179, 180, 181, 182, 183, 184, 185, 186, 187, 188, 189, 190, 191, 192, 193, 194, 195, 196, 197, 198, 199, 200, 201, 202, 203, 204, 205, 206, 207],
      "AcquisitionTime": ["142055.415000", "142056.905000", "142058.395000", "142059.885000", "142101.375000", "142102.865000", "142104.355000", "142105.845000", "142107.335000", "142108.825000", "142110.315000", "142111.805000", "142113.295000", "142114.785000", "142116.275000", "142117.765000", "142119.255000", "142120.745000", "142122.235000", "142123.725000", "142125.215000", "142126.705000", "142128.195000", "142129.685000", "142131.175000", "142132.665000", "142134.155000", "142135.645000", "142137.135000", "142138.625000", "142140.115000", "142141.605000", "142143.095000", "142144.585000", "142146.075000", "142147.565000", "142149.055000", "142150.545000", "142152.035000", "142153.525000", "142155.015000", "142156.505000", "142157.995000", "142159.485000", "142200.975000", "142202.465000", "142203.955000", "142205.445000", "142206.935000", "142208.425000", "142209.915000", "142211.405000", "142212.895000", "142214.385000", "142215.875000", "142217.365000", "142218.855000", "142220.345000", "142221.835000", "142223.325000", "142224.815000", "142226.305000", "142227.795000", "142229.285000", "142230.775000", "142232.265000", "142233.755000", "142235.245000", "142236.735000", "142238.225000", "142239.715000", "142241.205000", "142242.695000", "142244.185000", "142245.675000", "142247.165000", "142248.655000", "142250.145000", "142251.635000", "142253.125000", "142254.615000", "142256.105000", "142257.595000", "142259.085000", "142300.575000", "142302.065000", "142303.555000", "142305.045000", "142306.535000", "142308.025000", "142309.515000", "142311.005000", "142312.495000", "142313.985000", "142315.475000", "142316.965000", "142318.455000", "142319.945000", "142321.435000", "142322.925000", "142324.415000", "142325.905000", "142327.395000", "142328.885000", "142330.375000", "142331.865000", "142333.355000", "142334.845000", "142336.335000", "142337.825000", "142339.315000", "142340.805000", "142342.295000", "142343.785000", "142345.275000", "142346.765000", "142348.255000", "142349.745000", "142351.235000", "142352.725000", "142354.215000", "142355.705000", "142357.195000", "142358.685000", "142400.175000", "142401.665000", "142403.155000", "142404.645000", "142406.135000", "142407.625000", "142409.115000", "142410.605000", "142412.095000", "142413.585000", "142415.075000", "142416.565000", "142418.055000", "142419.545000", "142421.035000", "142422.525000", "142424.015000", "142425.505000", "142426.995000", "142428.485000", "142429.975000", "142431.465000", "142432.955000", "142434.445000", "142435.935000", "142437.425000", "142438.915000", "142440.405000", "142441.895000", "142443.385000", "142444.875000", "142446.365000", "142447.855000", "142449.345000", "142450.835000", "142452.325000", "142453.815000", "142455.305000", "142456.795000", "142458.285000", "142459.775000", "142501.265000", "142502.755000", "142504.245000", "142505.735000", "142507.225000", "142508.715000", "142510.205000", "142511.695000", "142513.185000", "142514.675000", "142516.165000", "142517.655000", "142519.145000", "142520.635000", "142522.125000", "142523.615000", "142525.105000", "142526.595000", "142528.085000", "142529.575000", "142531.065000", "142532.555000", "142534.045000", "142535.535000", "142537.025000", "142538.515000", "142540.005000", "142541.495000", "142542.985000", "142544.475000", "142545.965000", "142547.455000", "142548.945000", "142550.435000", "142551.925000", "142553.415000", "142554.905000", "142556.395000", "142557.885000", "142559.375000", "142600.865000", "142602.355000"],
      "ContentTime": ["142210.777000", "142210.779000", "142210.782000", "142210.784000", "142210.787000", "142210.789000", "142210.792000", "142210.794000", "142210.797000", "142210.799000", "142210.802000", "142210.804000", "142210.807000", "142210.809000", "142210.812000", "142210.814000", "142210.817000", "142210.819000", "142210.821000", "142210.824000", "142230.734000", "142230.737000", "142230.739000", "142230.742000", "142230.745000", "142230.747000", "142230.749000", "142230.752000", "142230.754000", "142230.757000", "142230.759000", "142230.762000", "142230.764000", "142230.767000", "142230.769000", "142230.772000", "142230.774000", "142230.777000", "142230.779000", "142230.782000", "142250.739000", "142250.742000", "142250.744000", "142250.747000", "142250.749000", "142250.760000", "142250.763000", "142250.766000", "142250.768000", "142250.770000", "142250.773000", "142250.775000", "142250.778000", "142250.780000", "142250.783000", "142250.785000", "142250.788000", "142250.790000", "142250.793000", "142250.795000", "142310.737000", "142310.739000", "142310.742000", "142310.745000", "142310.747000", "142310.750000", "142310.752000", "142310.755000", "142310.757000", "142310.760000", "142310.762000", "142310.765000", "142310.767000", "142310.770000", "142310.772000", "142310.775000", "142310.777000", "142310.780000", "142310.782000", "142310.785000", "142310.787000", "142330.725000", "142330.728000", "142330.731000", "142330.734000", "142330.736000", "142330.739000", "142330.742000", "142330.745000", "142330.747000", "142330.750000", "142330.753000", "142330.755000", "142330.758000", "142330.760000", "142330.763000", "142330.765000", "142330.768000", "142330.770000", "142330.773000", "142330.775000", "142410.778000", "142410.781000", "142410.784000", "142410.786000", "142410.789000", "142410.791000", "142410.794000", "142410.796000", "142410.799000", "142410.801000", "142410.804000", "142410.806000", "142410.809000", "142410.811000", "142410.814000", "142410.816000", "142410.819000", "142410.821000", "142410.824000", "142410.826000", "142410.829000", "142410.831000", "142410.834000", "142410.836000", "142410.839000", "142410.841000", "142410.844000", "142410.846000", "142410.849000", "142450.747000", "142450.750000", "142450.752000", "142450.755000", "142450.757000", "142450.760000", "142450.762000", "142450.765000", "142450.768000", "142450.770000", "142450.773000", "142450.781000", "142450.783000", "142450.786000", "142450.788000", "142450.791000", "142450.793000", "142450.796000", "142450.798000", "142450.801000", "142450.803000", "142450.806000", "142450.808000", "142450.811000", "142450.813000", "142450.816000", "142450.818000", "142530.760000", "142530.763000", "142530.766000", "142530.768000", "142530.771000", "142530.773000", "142530.776000", "142530.779000", "142530.781000", "142530.784000", "142530.786000", "142530.789000", "142530.792000", "142530.794000", "142530.797000", "142530.799000", "142530.802000", "142530.804000", "142530.807000", "142530.809000", "142530.812000", "142530.814000", "142530.817000", "142530.819000", "142530.822000", "142530.824000", "142530.827000", "142550.686000", "142550.688000", "142550.691000", "142550.693000", "142550.696000", "142550.698000", "142550.701000", "142550.703000", "142550.706000", "142550.708000", "142550.711000", "142550.713000", "142550.716000", "142604.484000", "142604.487000", "142604.489000", "142604.492000", "142604.495000", "142604.498000", "142604.500000", "142604.503000", "142604.507000", "142604.510000"],
      "InstanceCreationTime": ["142210.777000", "142210.779000", "142210.782000", "142210.784000", "142210.787000", "142210.789000", "142210.792000", "142210.794000", "142210.797000", "142210.799000", "142210.802000", "142210.804000", "142210.807000", "142210.809000", "142210.812000", "142210.814000", "142210.817000", "142210.819000", "142210.821000", "142210.824000", "142230.734000", "142230.737000", "142230.739000", "142230.742000", "142230.745000", "142230.747000", "142230.749000", "142230.752000", "142230.754000", "142230.757000", "142230.759000", "142230.762000", "142230.764000", "142230.767000", "142230.769000", "142230.772000", "142230.774000", "142230.777000", "142230.779000", "142230.782000", "142250.739000", "142250.742000", "142250.744000", "142250.747000", "142250.749000", "142250.760000", "142250.763000", "142250.766000", "142250.768000", "142250.770000", "142250.773000", "142250.775000", "142250.778000", "142250.780000", "142250.783000", "142250.785000", "142250.788000", "142250.790000", "142250.793000", "142250.795000", "142310.737000", "142310.739000", "142310.742000", "142310.745000", "142310.747000", "142310.750000", "142310.752000", "142310.755000", "142310.757000", "142310.760000", "142310.762000", "142310.765000", "142310.767000", "142310.770000", "142310.772000", "142310.775000", "142310.777000", "142310.780000", "142310.782000", "142310.785000", "142310.787000", "142330.725000", "142330.728000", "142330.731000", "142330.734000", "142330.736000", "142330.739000", "142330.742000", "142330.745000", "142330.747000", "142330.750000", "142330.753000", "142330.755000", "142330.758000", "142330.760000", "142330.763000", "142330.765000", "142330.768000", "142330.770000", "142330.773000", "142330.775000", "142410.778000", "142410.781000", "142410.784000", "142410.786000", "142410.789000", "142410.791000", "142410.794000", "142410.796000", "142410.799000", "142410.801000", "142410.804000", "142410.806000", "142410.809000", "142410.811000", "142410.814000", "142410.816000", "142410.819000", "142410.821000", "142410.824000", "142410.826000", "142410.829000", "142410.831000", "142410.834000", "142410.836000", "142410.839000", "142410.841000", "142410.844000", "142410.846000", "142410.849000", "142450.747000", "142450.750000", "142450.752000", "142450.755000", "142450.757000", "142450.760000", "142450.762000", "142450.765000", "142450.768000", "142450.770000", "142450.773000", "142450.781000", "142450.783000", "142450.786000", "142450.788000", "142450.791000", "142450.793000", "142450.796000", "142450.798000", "142450.801000", "142450.803000", "142450.806000", "142450.808000", "142450.811000", "142450.813000", "142450.816000", "142450.818000", "142530.760000", "142530.763000", "142530.766000", "142530.768000", "142530.771000", "142530.773000", "142530.776000", "142530.779000", "142530.781000", "142530.784000", "142530.786000", "142530.789000", "142530.792000", "142530.794000", "142530.797000", "142530.799000", "142530.802000", "142530.804000", "142530.807000", "142530.809000", "142530.812000", "142530.814000", "142530.817000", "142530.819000", "142530.822000", "142530.824000", "142530.827000", "142550.686000", "142550.688000", "142550.691000", "142550.693000", "142550.696000", "142550.698000", "142550.701000", "142550.703000", "142550.706000", "142550.708000", "142550.711000", "142550.713000", "142550.716000", "142604.484000", "142604.487000", "142604.489000", "142604.492000", "142604.495000", "142604.498000", "142604.500000", "142604.503000", "142604.507000", "142604.510000"],
      "InstanceNumber": [1, 2, 3, 4, 5, 6, 7, 8, 9, 10, 11, 12, 13, 14, 15, 16, 17, 18, 19, 20, 21, 22, 23, 24, 25, 26, 27, 28, 29, 30, 31, 32, 33, 34, 35, 36, 37, 38, 39, 40, 41, 42, 43, 44, 45, 46, 47, 48, 49, 50, 51, 52, 53, 54, 55, 56, 57, 58, 59, 60, 61, 62, 63, 64, 65, 66, 67, 68, 69, 70, 71, 72, 73, 74, 75, 76, 77, 78, 79, 80, 81, 82, 83, 84, 85, 86, 87, 88, 89, 90, 91, 92, 93, 94, 95, 96, 97, 98, 99, 100, 101, 102, 103, 104, 105, 106, 107, 108, 109, 110, 111, 112, 113, 114, 115, 116, 117, 118, 119, 120, 121, 122, 123, 124, 125, 126, 127, 128, 129, 130, 131, 132, 133, 134, 135, 136, 137, 138, 139, 140, 141, 142, 143, 144, 145, 146, 147, 148, 149, 150, 151, 152, 153, 154, 155, 156, 157, 158, 159, 160, 161, 162, 163, 164, 165, 166, 167, 168, 169, 170, 171, 172, 173, 174, 175, 176, 177, 178, 179, 180, 181, 182, 183, 184, 185, 186, 187, 188, 189, 190, 191, 192, 193, 194, 195, 196, 197, 198, 199, 200, 201, 202, 203, 204, 205, 206, 207],
      "WindowCenter": [4874.0, 4876.0, 4872.0, 4852.0, 4850.0, 4874.0, 4870.0, 4876.0, 4872.0, 4870.0, 4874.0, 4872.0, 4872.0, 4872.0, 4850.0, 4872.0, 4874.0, 4872.0, 4874.0, 4874.0, 4872.0, 4872.0, 4872.0, 4870.0, 4872.0, 4872.0, 4874.0, 4874.0, 4872.0, 4874.0, 4874.0, 4850.0, 4878.0, 4872.0, 4874.0, 4874.0, 4872.0, 4876.0, 4872.0, 4874.0, 4874.0, 4874.0, 4878.0, 4874.0, 4874.0, 4876.0, 4874.0, 4872.0, 4874.0, 4874.0, 4874.0, 4876.0, 4874.0, 4868.0, 4872.0, 4874.0, 4874.0, 4872.0, 4874.0, 4874.0, 4872.0, 4872.0, 4876.0, 4874.0, 4872.0, 4872.0, 4876.0, 4850.0, 4872.0, 4872.0, 4872.0, 4870.0, 4874.0, 4872.0, 4872.0, 4874.0, 4874.0, 4872.0, 4872.0, 4872.0, 4874.0, 4876.0, 4872.0, 4868.0, 4848.0, 4872.0, 4874.0, 4872.0, 4874.0, 4876.0, 4872.0, 4868.0, 4872.0, 4870.0, 4874.0, 4874.0, 4872.0, 4872.0, 4874.0, 4874.0, 4874.0, 4874.0, 4872.0, 4874.0, 4874.0, 4874.0, 4872.0, 4876.0, 4872.0, 4848.0, 4874.0, 4872.0, 4876.0, 4874.0, 4876.0, 4874.0, 4872.0, 4872.0, 4874.0, 4872.0, 4872.0, 4874.0, 4874.0, 4870.0, 4870.0, 4874.0, 4870.0, 4872.0, 4872.0, 4874.0, 4870.0, 4870.0, 4876.0, 4870.0, 4874.0, 4874.0, 4870.0, 4876.0, 4874.0, 4870.0, 4872.0, 4874.0, 4872.0, 4876.0, 4870.0, 4878.0, 4872.0, 4872.0, 4876.0, 4870.0, 4874.0, 4872.0, 4874.0, 4870.0, 4876.0, 4872.0, 4872.0, 4870.0, 4876.0, 4872.0, 4872.0, 4874.0, 4872.0, 4870.0, 4872.0, 4872.0, 4870.0, 4872.0, 4874.0, 4868.0, 4874.0, 4872.0, 4872.0, 4872.0, 4876.0, 4872.0, 4874.0, 4874.0, 4874.0, 4872.0, 4874.0, 4872.0, 4874.0, 4874.0, 4872.0, 4874.0, 4872.0, 4874.0, 4878.0, 4870.0, 4868.0, 4868.0, 4874.0, 4874.0, 4876.0, 4872.0, 4874.0, 4872.0, 4870.0, 4870.0, 4868.0, 4872.0, 4874.0, 4870.0, 4870.0, 4872.0, 4874.0],
      "WindowWidth": [18650.0, 18660.0, 18654.0, 18620.0, 18624.0, 18654.0, 18658.0, 18654.0, 18662.0, 18656.0, 18654.0, 18654.0, 18650.0, 18654.0, 18622.0, 18652.0, 18648.0, 18658.0, 18658.0, 18658.0, 18656.0, 18654.0, 18654.0, 18656.0, 18650.0, 18650.0, 18652.0, 18652.0, 18656.0, 18658.0, 18658.0, 18624.0, 18662.0, 18648.0, 18652.0, 18654.0, 18654.0, 18656.0, 18654.0, 18656.0, 18656.0, 18654.0, 18654.0, 18654.0, 18658.0, 18658.0, 18654.0, 18656.0, 18656.0, 18660.0, 18652.0, 18658.0, 18658.0, 18656.0, 18654.0, 18654.0, 18658.0, 18652.0, 18654.0, 18658.0, 18658.0, 18660.0, 18654.0, 18658.0, 18654.0, 18654.0, 18660.0, 18620.0, 18654.0, 18658.0, 18658.0, 18652.0, 18658.0, 18656.0, 18660.0, 18652.0, 18654.0, 18660.0, 18652.0, 18654.0, 18654.0, 18664.0, 18652.0, 18658.0, 18624.0, 18658.0, 18658.0, 18654.0, 18658.0, 18656.0, 18656.0, 18654.0, 18662.0, 18652.0, 18662.0, 18654.0, 18656.0, 18654.0, 18660.0, 18648.0, 18654.0, 18654.0, 18654.0, 18658.0, 18654.0, 18662.0, 18658.0, 18668.0, 18656.0, 18626.0, 18654.0, 18656.0, 18662.0, 18654.0, 18660.0, 18660.0, 18660.0, 18654.0, 18656.0, 18656.0, 18658.0, 18660.0, 18656.0, 18660.0, 18658.0, 18662.0, 18654.0, 18658.0, 18656.0, 18660.0, 18652.0, 18658.0, 18660.0, 18658.0, 18662.0, 18658.0, 18658.0, 18658.0, 18660.0, 18654.0, 18656.0, 18656.0, 18656.0, 18666.0, 18648.0, 18660.0, 18660.0, 18660.0, 18658.0, 18660.0, 18660.0, 18654.0, 18662.0, 18656.0, 18658.0, 18654.0, 18660.0, 18660.0, 18666.0, 18660.0, 18656.0, 18660.0, 18656.0, 18658.0, 18656.0, 18664.0, 18652.0, 18664.0, 18658.0, 18658.0, 18654.0, 18656.0, 18654.0, 18654.0, 18662.0, 18660.0, 18660.0, 18666.0, 18660.0, 18658.0, 18654.0, 18662.0, 18652.0, 18652.0, 18658.0, 18660.0, 18656.0, 18658.0, 18658.0, 18658.0, 18656.0, 18658.0, 18662.0, 18660.0, 18664.0, 18660.0, 18658.0, 18658.0, 18656.0, 18654.0, 18656.0, 18656.0, 18660.0, 18658.0, 18654.0, 18658.0, 18664.0]
    },
    "slices": {}
  }
}