{
  "AcquisitionMatrixPE": 104,
  "AcquisitionNumber": 1,
  "AcquisitionTime": "18:43:32.227500",
  "B0FieldSource": "sub-01_ses-006_task-gamepad_run-02_part-mag_bold.nii.gz",
  "BandwidthPerPixelPhaseEncode": 17.17,
  "BaseResolution": 104,
  "BodyPartExamined": "BRAIN",
  "CoilCombinationMethod": "Sum of Squares",
  "ConsistencyInfo": "N4_VE11C_LATEST_20160120",
  "ConversionSoftware": "dcm2niix",
  "ConversionSoftwareVersion": "v1.0.20211006",
  "DerivedVendorReportedEchoSpacing": 0.000560011,
  "DeviceSerialNumber": "167006",
  "DwellTime": 2.1e-06,
  "EchoTime": 0.037,
  "EchoTrainLength": 104,
  "EffectiveEchoSpacing": 0.000560011,
  "FlipAngle": 52,
  "HeudiconvVersion": "0.10.0",
  "ImageComments": "Unaliased MB4/PE3/LB",
  "ImageOrientationPatientDICOM": [0.996428, 0.0730031, 0.0424417, -0.0501282, 0.915833, -0.398418],
  "ImageOrientationText": "Tra>Cor(-23.3)>Sag(3.9)",
  "ImageType": [
    "ORIGINAL",
    "PRIMARY",
    "M",
    "MB",
    "ND",
    "MOSAIC"
],
  "ImagingFrequency": 123.259,
  "InPlanePhaseEncodingDirectionDICOM": "COL",
  "InstitutionAddress": "Chemin Queen-Mary 4565,Montreal,District,CA,H3W 1W5",
  "InstitutionName": "IUGM",
  "InstitutionalDepartmentName": "Department",
  "MRAcquisitionType": "2D",
  "MagneticFieldStrength": 3,
  "Manufacturer": "Siemens",
  "ManufacturersModelName": "Prisma_fit",
  "MatrixCoilMode": "SENSE",
  "Modality": "MR",
  "MultibandAccelerationFactor": 4,
  "PartialFourier": 1,
  "PatientPosition": "HFS",
  "PercentPhaseFOV": 100,
  "PercentSampling": 100,
  "PhaseEncodingDirection": "j",
  "PhaseEncodingSteps": 104,
  "PhaseResolution": 1,
  "PixelBandwidth": 2290,
  "ProcedureStepDescription": "games^gamepad",
  "ProtocolName": "func_task-gamepad_run-2",
  "PulseSequenceDetails": "%CustomerSeq%\\cmrr_mbep2d_bold",
  "ReceiveCoilActiveElements": "HC1-7;NC1,2",
  "ReceiveCoilName": "HeadNeck_64",
  "ReconMatrixPE": 104,
  "RepetitionTime": 1.49,
  "SAR": 0.061934,
  "ScanOptions": "FS",
  "ScanningSequence": "EP",
  "SequenceName": "epfid2d1_104",
  "SequenceVariant": "SK\\SS",
  "SeriesDescription": "func_task-gamepad_run-2",
  "SeriesNumber": 13,
  "ShimSetting": [625, -7194, -8830, 634, 71, -26, -50, -5],
  "SliceThickness": 2,
  "SliceTiming": [0, 0.7825, 0.0975, 0.8825, 0.195, 0.98, 0.2925, 1.0775, 0.3925, 1.175, 0.49, 1.2725, 0.5875, 1.3725, 0.685, 0, 0.7825, 0.0975, 0.8825, 0.195, 0.98, 0.2925, 1.0775, 0.3925, 1.175, 0.49, 1.2725, 0.5875, 1.3725, 0.685, 0, 0.7825, 0.0975, 0.8825, 0.195, 0.98, 0.2925, 1.0775, 0.3925, 1.175, 0.49, 1.2725, 0.5875, 1.3725, 0.685, 0, 0.7825, 0.0975, 0.8825, 0.195, 0.98, 0.2925, 1.0775, 0.3925, 1.175, 0.49, 1.2725, 0.5875, 1.3725, 0.685],
  "SoftwareVersions": "syngo MR E11",
  "SpacingBetweenSlices": 2,
  "StationName": "MRC35049",
  "TaskName": "gamepad",
  "TotalReadoutTime": 0.0576811,
  "TxRefAmp": 302.049,
  "WipMemBlock": "05dc8702-891d-4dbd-abf7-9b6f2f0d8dda||Sequence: R016 ve11c/master r/e634e98; Dec 19 2017 11:00:25 by eja",
  "dcmmeta_affine": [
    [-1.992856502532959, -0.10025636106729507, 0.13591057062149048, 108.51158142089844],
    [-0.1460062563419342, 1.831666111946106, -0.7897350788116455, -49.30589294433594],
    [0.08488341420888901, 0.796836256980896, 1.8324428796768188, -73.20442199707031],
    [0.0, 0.0, 0.0, 1.0]
],
  "dcmmeta_reorient_transform": [
    [0.0, -1.0, 0.0, 103.0],
    [1.0, 0.0, 0.0, 0.0],
    [0.0, 0.0, 1.0, 0.0],
    [0.0, 0.0, 0.0, 1.0]
],
  "dcmmeta_shape": [104, 104, 60, 207],
  "dcmmeta_slice_dim": 2,
  "dcmmeta_version": 0.6,
  "global": {
    "const": {
      "AcquisitionMatrix": [104, 0, 0, 104],
      "AngioFlag": "N",
      "BitsAllocated": 16,
      "BitsStored": 16,
      "BodyPartExamined": "BRAIN",
      "Columns": 832,
      "EchoNumbers": 1,
      "EchoTime": 37.0,
      "EchoTrainLength": 104,
      "FlipAngle": 52.0,
      "HighBit": 15,
      "ImageOrientationPatient": [0.99642824350783, 0.07300313108941, 0.04244170579798, -0.0501281797121, 0.91583303857636, -0.3984181359461],
      "ImagePositionPatient": [-787.09162042541, -859.22844349761, 268.0205515806],
      "ImageType": [
        "ORIGINAL",
        "PRIMARY",
        "M",
        "MB",
        "ND",
        "MOSAIC"
],
      "ImagedNucleus": "1H",
      "ImagingFrequency": 123.25911,
      "InPlanePhaseEncodingDirection": "COL",
      "MRAcquisitionType": "2D",
      "MagneticFieldStrength": 3.0,
      "Manufacturer": "SIEMENS",
      "ManufacturerModelName": "Prisma_fit",
      "Modality": "MR",
      "NumberOfAverages": 1.0,
      "NumberOfPhaseEncodingSteps": 104,
      "PercentPhaseFieldOfView": 100.0,
      "PercentSampling": 100.0,
      "PerformedProcedureStepStartTime": "183224.608000",
      "PhotometricInterpretation": "MONOCHROME2",
      "PixelBandwidth": 2290.0,
      "PixelRepresentation": 0,
      "PixelSpacing": [2.0, 2.0],
      "ProtocolName": "func_task-gamepad_run-2",
      "RepetitionTime": 1490.0,
      "Rows": 832,
      "SAR": 0.0619339807026,
      "SamplesPerPixel": 1,
      "ScanOptions": "FS",
      "ScanningSequence": "EP",
      "SequenceName": "epfid2d1_104",
      "SequenceVariant": [
        "SK",
        "SS"
],
      "SeriesDescription": "func_task-gamepad_run-2",
      "SeriesNumber": 13,
      "SeriesTime": "184459.217000",
      "SliceLocation": -40.228229230224,
      "SliceThickness": 2.0,
      "SmallestImagePixelValue": 0,
      "SoftwareVersions": "syngo MR E11",
      "SpacingBetweenSlices": 1.999999978305,
      "SpecificCharacterSet": "ISO_IR 100",
      "StudyID": "1",
      "StudyTime": "183224.523000",
      "TransmitCoilName": "Body",
      "VariableFlipAngleFlag": "N",
      "WindowCenterWidthExplanation": "Algo1",
      "dBdt": 0.0},
    "slices": {}
  },
  "time": {
    "samples": {
      "AcquisitionNumber": [1, 2, 3, 4, 5, 6, 7, 8, 9, 10, 11, 12, 13, 14, 15, 16, 17, 18, 19, 20, 21, 22, 23, 24, 25, 26, 27, 28, 29, 30, 31, 32, 33, 34, 35, 36, 37, 38, 39, 40, 41, 42, 43, 44, 45, 46, 47, 48, 49, 50, 51, 52, 53, 54, 55, 56, 57, 58, 59, 60, 61, 62, 63, 64, 65, 66, 67, 68, 69, 70, 71, 72, 73, 74, 75, 76, 77, 78, 79, 80, 81, 82, 83, 84, 85, 86, 87, 88, 89, 90, 91, 92, 93, 94, 95, 96, 97, 98, 99, 100, 101, 102, 103, 104, 105, 106, 107, 108, 109, 110, 111, 112, 113, 114, 115, 116, 117, 118, 119, 120, 121, 122, 123, 124, 125, 126, 127, 128, 129, 130, 131, 132, 133, 134, 135, 136, 137, 138, 139, 140, 141, 142, 143, 144, 145, 146, 147, 148, 149, 150, 151, 152, 153, 154, 155, 156, 157, 158, 159, 160, 161, 162, 163, 164, 165, 166, 167, 168, 169, 170, 171, 172, 173, 174, 175, 176, 177, 178, 179, 180, 181, 182, 183, 184, 185, 186, 187, 188, 189, 190, 191, 192, 193, 194, 195, 196, 197, 198, 199, 200, 201, 202, 203, 204, 205, 206, 207],
      "AcquisitionTime": ["184332.227500", "184333.717500", "184335.207500", "184336.697500", "184338.187500", "184339.677500", "184341.167500", "184342.657500", "184344.147500", "184345.637500", "184347.127500", "184348.617500", "184350.107500", "184351.597500", "184353.087500", "184354.577500", "184356.067500", "184357.557500", "184359.047500", "184400.537500", "184402.027500", "184403.517500", "184405.007500", "184406.497500", "184407.987500", "184409.477500", "184410.967500", "184412.457500", "184413.947500", "184415.437500", "184416.927500", "184418.417500", "184419.907500", "184421.397500", "184422.887500", "184424.377500", "184425.867500", "184427.357500", "184428.847500", "184430.337500", "184431.827500", "184433.317500", "184434.807500", "184436.297500", "184437.787500", "184439.277500", "184440.767500", "184442.257500", "184443.747500", "184445.237500", "184446.727500", "184448.217500", "184449.707500", "184451.197500", "184452.687500", "184454.177500", "184455.667500", "184457.157500", "184458.647500", "184500.137500", "184501.627500", "184503.117500", "184504.607500", "184506.097500", "184507.587500", "184509.077500", "184510.567500", "184512.057500", "184513.547500", "184515.037500", "184516.527500", "184518.017500", "184519.507500", "184520.997500", "184522.487500", "184523.977500", "184525.467500", "184526.957500", "184528.447500", "184529.937500", "184531.427500", "184532.917500", "184534.407500", "184535.897500", "184537.387500", "184538.877500", "184540.367500", "184541.857500", "184543.347500", "184544.837500", "184546.327500", "184547.817500", "184549.307500", "184550.797500", "184552.287500", "184553.777500", "184555.267500", "184556.757500", "184558.247500", "184559.737500", "184601.227500", "184602.717500", "184604.207500", "184605.697500", "184607.187500", "184608.677500", "184610.167500", "184611.657500", "184613.147500", "184614.637500", "184616.127500", "184617.617500", "184619.107500", "184620.597500", "184622.087500", "184623.577500", "184625.067500", "184626.557500", "184628.047500", "184629.537500", "184631.027500", "184632.517500", "184634.007500", "184635.497500", "184636.987500", "184638.477500", "184639.967500", "184641.457500", "184642.947500", "184644.437500", "184645.927500", "184647.417500", "184648.907500", "184650.397500", "184651.887500", "184653.377500", "184654.867500", "184656.357500", "184657.847500", "184659.337500", "184700.827500", "184702.317500", "184703.807500", "184705.297500", "184706.787500", "184708.277500", "184709.767500", "184711.257500", "184712.747500", "184714.237500", "184715.727500", "184717.217500", "184718.707500", "184720.197500", "184721.687500", "184723.177500", "184724.667500", "184726.157500", "184727.647500", "184729.137500", "184730.627500", "184732.117500", "184733.607500", "184735.097500", "184736.587500", "184738.077500", "184739.567500", "184741.057500", "184742.547500", "184744.037500", "184745.527500", "184747.017500", "184748.507500", "184749.997500", "184751.487500", "184752.977500", "184754.467500", "184755.957500", "184757.447500", "184758.937500", "184800.427500", "184801.917500", "184803.407500", "184804.897500", "184806.387500", "184807.877500", "184809.367500", "184810.857500", "184812.347500", "184813.837500", "184815.327500", "184816.817500", "184818.307500", "184819.797500", "184821.287500", "184822.777500", "184824.267500", "184825.757500", "184827.247500", "184828.737500", "184830.227500", "184831.717500", "184833.207500", "184834.697500", "184836.187500", "184837.677500", "184839.167500"],
      "ContentTime": ["184459.220000", "184459.224000", "184459.227000", "184459.231000", "184459.234000", "184459.237000", "184459.241000", "184459.244000", "184459.247000", "184459.250000", "184459.254000", "184459.257000", "184459.260000", "184459.264000", "184459.267000", "184459.270000", "184459.273000", "184459.277000", "184459.280000", "184459.283000", "184459.287000", "184459.305000", "184459.309000", "184459.312000", "184459.316000", "184459.319000", "184459.322000", "184459.326000", "184459.329000", "184459.332000", "184459.335000", "184459.339000", "184459.342000", "184519.176000", "184519.180000", "184519.183000", "184519.186000", "184519.189000", "184519.193000", "184519.196000", "184519.199000", "184519.203000", "184519.206000", "184519.209000", "184519.212000", "184519.216000", "184519.219000", "184519.223000", "184519.226000", "184519.230000", "184519.233000", "184519.236000", "184519.240000", "184539.176000", "184539.180000", "184539.183000", "184539.186000", "184539.189000", "184539.193000", "184539.196000", "184539.199000", "184539.203000", "184539.206000", "184539.209000", "184539.212000", "184539.216000", "184539.219000", "184539.222000", "184539.226000", "184539.229000", "184539.232000", "184539.235000", "184539.239000", "184539.242000", "184559.176000", "184559.180000", "184559.183000", "184559.186000", "184559.190000", "184559.193000", "184559.196000", "184559.200000", "184559.203000", "184559.206000", "184559.209000", "184559.213000", "184559.216000", "184559.219000", "184559.222000", "184559.226000", "184559.229000", "184559.232000", "184559.235000", "184559.239000", "184639.176000", "184639.180000", "184639.183000", "184639.186000", "184639.190000", "184639.193000", "184639.196000", "184639.200000", "184639.203000", "184639.206000", "184639.209000", "184639.213000", "184639.216000", "184639.220000", "184639.223000", "184639.226000", "184639.230000", "184639.233000", "184639.236000", "184639.239000", "184639.243000", "184639.246000", "184639.249000", "184639.252000", "184639.256000", "184639.259000", "184639.262000", "184639.266000", "184639.269000", "184639.272000", "184639.276000", "184719.193000", "184719.197000", "184719.200000", "184719.204000", "184719.207000", "184719.210000", "184719.213000", "184719.217000", "184719.220000", "184719.223000", "184719.227000", "184719.230000", "184719.233000", "184719.236000", "184719.240000", "184719.243000", "184719.246000", "184719.250000", "184719.253000", "184719.256000", "184719.259000", "184719.263000", "184719.266000", "184719.269000", "184719.273000", "184719.276000", "184719.279000", "184759.176000", "184759.180000", "184759.183000", "184759.186000", "184759.190000", "184759.193000", "184759.196000", "184759.199000", "184759.203000", "184759.206000", "184759.209000", "184759.213000", "184759.216000", "184759.219000", "184759.222000", "184759.226000", "184759.229000", "184759.232000", "184759.235000", "184759.239000", "184759.242000", "184759.245000", "184759.249000", "184759.252000", "184759.255000", "184759.258000", "184759.262000", "184839.176000", "184839.180000", "184839.183000", "184839.187000", "184839.190000", "184839.193000", "184839.197000", "184839.200000", "184839.203000", "184839.206000", "184839.210000", "184839.213000", "184839.217000", "184839.220000", "184839.223000", "184839.227000", "184839.230000", "184839.233000", "184839.237000", "184839.240000", "184839.243000", "184839.247000", "184839.251000", "184839.255000", "184839.258000", "184839.262000", "184840.938000", "184840.941000"],
      "InstanceCreationTime": ["184459.220000", "184459.224000", "184459.227000", "184459.231000", "184459.234000", "184459.237000", "184459.241000", "184459.244000", "184459.247000", "184459.250000", "184459.254000", "184459.257000", "184459.260000", "184459.264000", "184459.267000", "184459.270000", "184459.273000", "184459.277000", "184459.280000", "184459.283000", "184459.287000", "184459.305000", "184459.309000", "184459.312000", "184459.316000", "184459.319000", "184459.322000", "184459.326000", "184459.329000", "184459.332000", "184459.335000", "184459.339000", "184459.342000", "184519.176000", "184519.180000", "184519.183000", "184519.186000", "184519.189000", "184519.193000", "184519.196000", "184519.199000", "184519.203000", "184519.206000", "184519.209000", "184519.212000", "184519.216000", "184519.219000", "184519.223000", "184519.226000", "184519.230000", "184519.233000", "184519.236000", "184519.240000", "184539.176000", "184539.180000", "184539.183000", "184539.186000", "184539.189000", "184539.193000", "184539.196000", "184539.199000", "184539.203000", "184539.206000", "184539.209000", "184539.212000", "184539.216000", "184539.219000", "184539.222000", "184539.226000", "184539.229000", "184539.232000", "184539.235000", "184539.239000", "184539.242000", "184559.176000", "184559.180000", "184559.183000", "184559.186000", "184559.190000", "184559.193000", "184559.196000", "184559.200000", "184559.203000", "184559.206000", "184559.209000", "184559.213000", "184559.216000", "184559.219000", "184559.222000", "184559.226000", "184559.229000", "184559.232000", "184559.235000", "184559.239000", "184639.176000", "184639.180000", "184639.183000", "184639.186000", "184639.190000", "184639.193000", "184639.196000", "184639.200000", "184639.203000", "184639.206000", "184639.209000", "184639.213000", "184639.216000", "184639.220000", "184639.223000", "184639.226000", "184639.230000", "184639.233000", "184639.236000", "184639.239000", "184639.243000", "184639.246000", "184639.249000", "184639.252000", "184639.256000", "184639.259000", "184639.262000", "184639.266000", "184639.269000", "184639.272000", "184639.276000", "184719.193000", "184719.197000", "184719.200000", "184719.204000", "184719.207000", "184719.210000", "184719.213000", "184719.217000", "184719.220000", "184719.223000", "184719.227000", "184719.230000", "184719.233000", "184719.236000", "184719.240000", "184719.243000", "184719.246000", "184719.250000", "184719.253000", "184719.256000", "184719.259000", "184719.263000", "184719.266000", "184719.269000", "184719.273000", "184719.276000", "184719.279000", "184759.176000", "184759.180000", "184759.183000", "184759.186000", "184759.190000", "184759.193000", "184759.196000", "184759.199000", "184759.203000", "184759.206000", "184759.209000", "184759.213000", "184759.216000", "184759.219000", "184759.222000", "184759.226000", "184759.229000", "184759.232000", "184759.235000", "184759.239000", "184759.242000", "184759.245000", "184759.249000", "184759.252000", "184759.255000", "184759.258000", "184759.262000", "184839.176000", "184839.180000", "184839.183000", "184839.187000", "184839.190000", "184839.193000", "184839.197000", "184839.200000", "184839.203000", "184839.206000", "184839.210000", "184839.213000", "184839.217000", "184839.220000", "184839.223000", "184839.227000", "184839.230000", "184839.233000", "184839.237000", "184839.240000", "184839.243000", "184839.247000", "184839.251000", "184839.255000", "184839.258000", "184839.262000", "184840.938000", "184840.941000"],
      "InstanceNumber": [1, 2, 3, 4, 5, 6, 7, 8, 9, 10, 11, 12, 13, 14, 15, 16, 17, 18, 19, 20, 21, 22, 23, 24, 25, 26, 27, 28, 29, 30, 31, 32, 33, 34, 35, 36, 37, 38, 39, 40, 41, 42, 43, 44, 45, 46, 47, 48, 49, 50, 51, 52, 53, 54, 55, 56, 57, 58, 59, 60, 61, 62, 63, 64, 65, 66, 67, 68, 69, 70, 71, 72, 73, 74, 75, 76, 77, 78, 79, 80, 81, 82, 83, 84, 85, 86, 87, 88, 89, 90, 91, 92, 93, 94, 95, 96, 97, 98, 99, 100, 101, 102, 103, 104, 105, 106, 107, 108, 109, 110, 111, 112, 113, 114, 115, 116, 117, 118, 119, 120, 121, 122, 123, 124, 125, 126, 127, 128, 129, 130, 131, 132, 133, 134, 135, 136, 137, 138, 139, 140, 141, 142, 143, 144, 145, 146, 147, 148, 149, 150, 151, 152, 153, 154, 155, 156, 157, 158, 159, 160, 161, 162, 163, 164, 165, 166, 167, 168, 169, 170, 171, 172, 173, 174, 175, 176, 177, 178, 179, 180, 181, 182, 183, 184, 185, 186, 187, 188, 189, 190, 191, 192, 193, 194, 195, 196, 197, 198, 199, 200, 201, 202, 203, 204, 205, 206, 207],
      "LargestImagePixelValue": [45899, 44097, 42534, 42327, 41665, 40983, 40757, 40553, 40120, 40297, 39499, 40508, 39735, 44867, 43700, 44432, 42300, 41238, 42311, 43509, 42631, 42438, 42054, 41914, 40774, 40823, 41396, 41577, 41728, 41537, 41773, 41596, 39388, 38869, 40802, 39728, 40699, 41027, 41565, 41518, 40569, 41048, 40649, 40869, 42108, 41448, 41295, 41136, 41998, 42180, 41708, 41037, 41892, 41477, 40274, 39730, 39564, 41140, 41860, 41829, 41347, 43781, 43847, 42262, 42065, 42010, 41766, 42614, 41874, 42196, 41624, 41425, 41582, 42965, 42608, 42169, 42133, 42052, 42283, 43506, 43205, 42399, 42702, 44077, 44314, 43785, 44480, 44740, 43395, 43784, 45078, 45147, 44509, 43238, 40966, 40521, 41331, 41697, 41612, 41086, 41424, 41027, 41016, 41874, 41867, 42715, 42535, 42226, 41971, 41641, 41929, 41537, 41923, 38793, 39615, 39598, 39617, 39930, 39758, 40592, 41463, 41067, 40192, 40337, 40388, 40520, 40551, 40955, 41427, 40910, 39259, 40679, 41907, 41328, 39966, 42065, 41477, 40268, 41503, 41598, 39727, 40042, 39363, 39417, 39456, 39194, 39127, 39238, 39397, 40261, 39984, 39843, 39822, 39966, 40915, 39283, 39691, 39317, 40135, 39616, 40866, 48693, 41491, 41731, 41898, 42499, 42454, 43240, 44414, 43946, 43539, 43108, 43507, 44202, 44605, 44756, 43755, 43723, 44192, 44783, 44739, 43908, 45563, 44691, 44504, 45423, 43474, 44524, 44935, 44287, 44437, 44973, 44412, 44484, 45248, 44923, 44579, 44911, 45630, 45290, 44870, 44612, 44857, 45095, 44758, 45076, 45543],
      "WindowCenter": [10686.0, 10619.0, 10574.0, 10559.0, 10542.0, 10526.0, 10526.0, 10558.0, 10555.0, 10551.0, 10521.0, 10522.0, 10525.0, 10597.0, 10643.0, 10678.0, 10640.0, 10598.0, 10580.0, 10559.0, 10550.0, 10543.0, 10537.0, 10546.0, 10552.0, 10577.0, 10574.0, 10577.0, 10582.0, 10577.0, 10580.0, 10591.0, 10582.0, 10579.0, 10606.0, 10590.0, 10605.0, 10592.0, 10586.0, 10584.0, 10582.0, 10593.0, 10608.0, 10616.0, 10635.0, 10629.0, 10617.0, 10609.0, 10605.0, 10617.0, 10631.0, 10635.0, 10645.0, 10641.0, 10615.0, 10609.0, 10617.0, 10634.0, 10638.0, 10632.0, 10628.0, 10642.0, 10640.0, 10640.0, 10637.0, 10652.0, 10658.0, 10668.0, 10657.0, 10675.0, 10678.0, 10663.0, 10654.0, 10661.0, 10664.0, 10674.0, 10688.0, 10683.0, 10668.0, 10658.0, 10634.0, 10629.0, 10639.0, 10648.0, 10640.0, 10641.0, 10662.0, 10656.0, 10646.0, 10659.0, 10662.0, 10658.0, 10654.0, 10635.0, 10573.0, 10566.0, 10598.0, 10623.0, 10604.0, 10581.0, 10574.0, 10572.0, 10563.0, 10555.0, 10536.0, 10576.0, 10587.0, 10571.0, 10553.0, 10552.0, 10566.0, 10570.0, 10589.0, 10551.0, 10563.0, 10568.0, 10568.0, 10568.0, 10561.0, 10565.0, 10575.0, 10578.0, 10560.0, 10559.0, 10559.0, 10566.0, 10582.0, 10591.0, 10588.0, 10579.0, 10580.0, 10591.0, 10605.0, 10584.0, 10567.0, 10589.0, 10597.0, 10592.0, 10611.0, 10603.0, 10567.0, 10570.0, 10568.0, 10584.0, 10600.0, 10603.0, 10595.0, 10600.0, 10599.0, 10603.0, 10602.0, 10611.0, 10626.0, 10642.0, 10666.0, 10651.0, 10653.0, 10645.0, 10636.0, 10628.0, 10648.0, 10746.0, 10703.0, 10684.0, 10672.0, 10654.0, 10635.0, 10640.0, 10656.0, 10656.0, 10660.0, 10666.0, 10667.0, 10669.0, 10657.0, 10667.0, 10672.0, 10693.0, 10686.0, 10673.0, 10649.0, 10627.0, 10642.0, 10633.0, 10623.0, 10640.0, 10647.0, 10672.0, 10679.0, 10676.0, 10685.0, 10682.0, 10669.0, 10668.0, 10667.0, 10668.0, 10670.0, 10688.0, 10708.0, 10691.0, 10689.0, 10688.0, 10679.0, 10668.0, 10659.0, 10664.0, 10670.0],
      "WindowWidth": [22720.0, 22552.0, 22445.0, 22406.0, 22366.0, 22329.0, 22330.0, 22420.0, 22403.0, 22398.0, 22326.0, 22329.0, 22333.0, 22483.0, 22601.0, 22683.0, 22598.0, 22498.0, 22453.0, 22398.0, 22382.0, 22366.0, 22354.0, 22390.0, 22399.0, 22464.0, 22448.0, 22452.0, 22462.0, 22452.0, 22458.0, 22487.0, 22473.0, 22464.0, 22521.0, 22484.0, 22518.0, 22483.0, 22469.0, 22465.0, 22464.0, 22486.0, 22530.0, 22546.0, 22583.0, 22574.0, 22542.0, 22526.0, 22515.0, 22541.0, 22580.0, 22589.0, 22606.0, 22599.0, 22540.0, 22528.0, 22549.0, 22580.0, 22590.0, 22573.0, 22574.0, 22589.0, 22580.0, 22597.0, 22591.0, 22625.0, 22643.0, 22662.0, 22641.0, 22685.0, 22692.0, 22658.0, 22636.0, 22648.0, 22657.0, 22686.0, 22721.0, 22705.0, 22664.0, 22632.0, 22575.0, 22571.0, 22603.0, 22605.0, 22585.0, 22587.0, 22634.0, 22618.0, 22608.0, 22632.0, 22628.0, 22617.0, 22611.0, 22571.0, 22436.0, 22417.0, 22497.0, 22553.0, 22506.0, 22455.0, 22439.0, 22434.0, 22414.0, 22391.0, 22344.0, 22443.0, 22468.0, 22427.0, 22388.0, 22385.0, 22420.0, 22431.0, 22474.0, 22399.0, 22421.0, 22428.0, 22428.0, 22427.0, 22413.0, 22425.0, 22444.0, 22451.0, 22413.0, 22411.0, 22409.0, 22426.0, 22464.0, 22481.0, 22473.0, 22450.0, 22470.0, 22478.0, 22506.0, 22461.0, 22424.0, 22468.0, 22493.0, 22485.0, 22522.0, 22503.0, 22433.0, 22434.0, 22429.0, 22467.0, 22508.0, 22516.0, 22497.0, 22508.0, 22507.0, 22516.0, 22512.0, 22532.0, 22570.0, 22608.0, 22663.0, 22631.0, 22632.0, 22613.0, 22590.0, 22568.0, 22600.0, 22821.0, 22734.0, 22689.0, 22660.0, 22613.0, 22570.0, 22583.0, 22613.0, 22613.0, 22626.0, 22642.0, 22646.0, 22649.0, 22615.0, 22636.0, 22651.0, 22704.0, 22684.0, 22648.0, 22591.0, 22546.0, 22576.0, 22571.0, 22536.0, 22575.0, 22606.0, 22648.0, 22666.0, 22662.0, 22683.0, 22676.0, 22654.0, 22651.0, 22637.0, 22639.0, 22646.0, 22695.0, 22731.0, 22688.0, 22679.0, 22693.0, 22661.0, 22634.0, 22616.0, 22626.0, 22637.0]
    },
    "slices": {}
  }
}