{
  "AcquisitionMatrixPE": 104,
  "AcquisitionNumber": 1,
  "AcquisitionTime": "18:36:45.025000",
  "BandwidthPerPixelPhaseEncode": 17.17,
  "BaseResolution": 104,
  "BodyPartExamined": "BRAIN",
  "CoilCombinationMethod": "Sum of Squares",
  "ConsistencyInfo": "N4_VE11C_LATEST_20160120",
  "ConversionSoftware": "dcm2niix",
  "ConversionSoftwareVersion": "v1.0.20211006",
  "DerivedVendorReportedEchoSpacing": 0.000560011,
  "DeviceSerialNumber": "167006",
  "DwellTime": 2.1e-06,
  "EchoTime": 0.037,
  "EchoTime1": 0.037,
  "EchoTime2": 0.001,
  "EchoTrainLength": 104,
  "EffectiveEchoSpacing": 0.000560011,
  "FlipAngle": 52,
  "HeudiconvVersion": "0.10.0",
  "ImageComments": "Unaliased MB4/PE3/LB",
  "ImageOrientationPatientDICOM": [0.996428, 0.0730031, 0.0424417, -0.0501282, 0.915833, -0.398418],
  "ImageOrientationText": "Tra>Cor(-23.3)>Sag(3.9)",
  "ImageType": [
    "ORIGINAL",
    "PRIMARY",
    "P",
    "MB",
    "ND",
    "MOSAIC",
    "PHASE"
],
  "ImagingFrequency": 123.259,
  "InPlanePhaseEncodingDirectionDICOM": "COL",
  "InstitutionAddress": "Chemin Queen-Mary 4565,Montreal,District,CA,H3W 1W5",
  "InstitutionName": "IUGM",
  "InstitutionalDepartmentName": "Department",
  "MRAcquisitionType": "2D",
  "MagneticFieldStrength": 3,
  "Manufacturer": "Siemens",
  "ManufacturersModelName": "Prisma_fit",
  "MatrixCoilMode": "SENSE",
  "Modality": "MR",
  "MultibandAccelerationFactor": 4,
  "PartialFourier": 1,
  "PatientPosition": "HFS",
  "PercentPhaseFOV": 100,
  "PercentSampling": 100,
  "PhaseEncodingDirection": "j",
  "PhaseEncodingSteps": 104,
  "PhaseResolution": 1,
  "PixelBandwidth": 2290,
  "ProcedureStepDescription": "games^gamepad",
  "ProtocolName": "func_task-gamepad_run-1",
  "PulseSequenceDetails": "%CustomerSeq%\\cmrr_mbep2d_bold",
  "ReceiveCoilActiveElements": "HC1-7;NC1,2",
  "ReceiveCoilName": "HeadNeck_64",
  "ReconMatrixPE": 104,
  "RepetitionTime": 1.49,
  "SAR": 0.061934,
  "ScanOptions": "FS",
  "ScanningSequence": "EP",
  "SequenceName": "epfid2d1_104",
  "SequenceVariant": "SK\\SS",
  "SeriesDescription": "func_task-gamepad_run-1",
  "SeriesNumber": 11,
  "ShimSetting": [625, -7194, -8830, 634, 71, -26, -50, -5],
  "SliceThickness": 2,
  "SliceTiming": [0, 0.785, 0.0975, 0.8825, 0.1975, 0.98, 0.295, 1.0775, 0.3925, 1.175, 0.49, 1.275, 0.5875, 1.3725, 0.6875, 0, 0.785, 0.0975, 0.8825, 0.1975, 0.98, 0.295, 1.0775, 0.3925, 1.175, 0.49, 1.275, 0.5875, 1.3725, 0.6875, 0, 0.785, 0.0975, 0.8825, 0.1975, 0.98, 0.295, 1.0775, 0.3925, 1.175, 0.49, 1.275, 0.5875, 1.3725, 0.6875, 0, 0.785, 0.0975, 0.8825, 0.1975, 0.98, 0.295, 1.0775, 0.3925, 1.175, 0.49, 1.275, 0.5875, 1.3725, 0.6875],
  "SoftwareVersions": "syngo MR E11",
  "SpacingBetweenSlices": 2,
  "StationName": "MRC35049",
  "TaskName": "gamepad",
  "TotalReadoutTime": 0.0576811,
  "TxRefAmp": 302.049,
  "WipMemBlock": "1dcb1ad9-5390-401d-955d-20e6a822d94d||Sequence: R016 ve11c/master r/e634e98; Dec 19 2017 11:00:25 by eja",
  "dcmmeta_affine": [
    [-1.992856502532959, -0.10025636106729507, 0.13591057062149048, 108.51158142089844],
    [-0.1460062563419342, 1.831666111946106, -0.7897350788116455, -49.30589294433594],
    [0.08488341420888901, 0.796836256980896, 1.8324428796768188, -73.20442199707031],
    [0.0, 0.0, 0.0, 1.0]
],
  "dcmmeta_reorient_transform": [
    [0.0, -1.0, 0.0, 103.0],
    [1.0, 0.0, 0.0, 0.0],
    [0.0, 0.0, 1.0, 0.0],
    [0.0, 0.0, 0.0, 1.0]
],
  "dcmmeta_shape": [104, 104, 60, 207],
  "dcmmeta_slice_dim": 2,
  "dcmmeta_version": 0.6,
  "global": {
    "const": {
      "AcquisitionMatrix": [104, 0, 0, 104],
      "AngioFlag": "N",
      "BitsAllocated": 16,
      "BitsStored": 16,
      "BodyPartExamined": "BRAIN",
      "Columns": 832,
      "EchoNumbers": 1,
      "EchoTime": 37.0,
      "EchoTrainLength": 104,
      "FlipAngle": 52.0,
      "HighBit": 15,
      "ImageOrientationPatient": [0.99642824350783, 0.07300313108941, 0.04244170579798, -0.0501281797121, 0.91583303857636, -0.3984181359461],
      "ImagePositionPatient": [-787.09162042541, -859.22844349761, 268.0205515806],
      "ImageType": [
        "ORIGINAL",
        "PRIMARY",
        "P",
        "MB",
        "ND",
        "MOSAIC"
],
      "ImagedNucleus": "1H",
      "ImagingFrequency": 123.259107,
      "InPlanePhaseEncodingDirection": "COL",
      "LargestImagePixelValue": 4095,
      "MRAcquisitionType": "2D",
      "MagneticFieldStrength": 3.0,
      "Manufacturer": "SIEMENS",
      "ManufacturerModelName": "Prisma_fit",
      "Modality": "MR",
      "NumberOfAverages": 1.0,
      "NumberOfPhaseEncodingSteps": 104,
      "PercentPhaseFieldOfView": 100.0,
      "PercentSampling": 100.0,
      "PerformedProcedureStepStartTime": "183224.608000",
      "PhotometricInterpretation": "MONOCHROME2",
      "PixelBandwidth": 2290.0,
      "PixelRepresentation": 0,
      "PixelSpacing": [2.0, 2.0],
      "ProtocolName": "func_task-gamepad_run-1",
      "RepetitionTime": 1490.0,
      "RescaleIntercept": -4096.0,
      "RescaleSlope": 2.0,
      "RescaleType": "US",
      "Rows": 832,
      "SAR": 0.0619339807026,
      "SamplesPerPixel": 1,
      "ScanOptions": "FS",
      "ScanningSequence": "EP",
      "SequenceName": "epfid2d1_104",
      "SequenceVariant": [
        "SK",
        "SS"
],
      "SeriesDescription": "func_task-gamepad_run-1",
      "SeriesNumber": 11,
      "SeriesTime": "183748.395000",
      "SliceLocation": -40.228229230224,
      "SliceThickness": 2.0,
      "SmallestImagePixelValue": 0,
      "SoftwareVersions": "syngo MR E11",
      "SpacingBetweenSlices": 1.999999978305,
      "SpecificCharacterSet": "ISO_IR 100",
      "StudyID": "1",
      "StudyTime": "183224.523000",
      "TransmitCoilName": "Body",
      "VariableFlipAngleFlag": "N",
      "WindowCenterWidthExplanation": "Algo1",
      "dBdt": 0.0},
    "slices": {}
  },
  "time": {
    "samples": {
      "AcquisitionNumber": [1, 2, 3, 4, 5, 6, 7, 8, 9, 10, 11, 12, 13, 14, 15, 16, 17, 18, 19, 20, 21, 22, 23, 24, 25, 26, 27, 28, 29, 30, 31, 32, 33, 34, 35, 36, 37, 38, 39, 40, 41, 42, 43, 44, 45, 46, 47, 48, 49, 50, 51, 52, 53, 54, 55, 56, 57, 58, 59, 60, 61, 62, 63, 64, 65, 66, 67, 68, 69, 70, 71, 72, 73, 74, 75, 76, 77, 78, 79, 80, 81, 82, 83, 84, 85, 86, 87, 88, 89, 90, 91, 92, 93, 94, 95, 96, 97, 98, 99, 100, 101, 102, 103, 104, 105, 106, 107, 108, 109, 110, 111, 112, 113, 114, 115, 116, 117, 118, 119, 120, 121, 122, 123, 124, 125, 126, 127, 128, 129, 130, 131, 132, 133, 134, 135, 136, 137, 138, 139, 140, 141, 142, 143, 144, 145, 146, 147, 148, 149, 150, 151, 152, 153, 154, 155, 156, 157, 158, 159, 160, 161, 162, 163, 164, 165, 166, 167, 168, 169, 170, 171, 172, 173, 174, 175, 176, 177, 178, 179, 180, 181, 182, 183, 184, 185, 186, 187, 188, 189, 190, 191, 192, 193, 194, 195, 196, 197, 198, 199, 200, 201, 202, 203, 204, 205, 206, 207],
      "AcquisitionTime": ["183645.025000", "183646.515000", "183648.005000", "183649.495000", "183650.985000", "183652.475000", "183653.965000", "183655.455000", "183656.945000", "183658.435000", "183659.925000", "183701.415000", "183702.905000", "183704.395000", "183705.885000", "183707.375000", "183708.865000", "183710.355000", "183711.845000", "183713.335000", "183714.825000", "183716.315000", "183717.805000", "183719.295000", "183720.785000", "183722.275000", "183723.765000", "183725.255000", "183726.745000", "183728.235000", "183729.725000", "183731.215000", "183732.705000", "183734.195000", "183735.685000", "183737.175000", "183738.665000", "183740.155000", "183741.645000", "183743.135000", "183744.625000", "183746.115000", "183747.605000", "183749.095000", "183750.585000", "183752.075000", "183753.565000", "183755.055000", "183756.545000", "183758.035000", "183759.525000", "183801.015000", "183802.505000", "183803.995000", "183805.485000", "183806.975000", "183808.465000", "183809.955000", "183811.445000", "183812.935000", "183814.425000", "183815.915000", "183817.405000", "183818.895000", "183820.385000", "183821.875000", "183823.365000", "183824.855000", "183826.345000", "183827.835000", "183829.325000", "183830.815000", "183832.305000", "183833.795000", "183835.285000", "183836.775000", "183838.265000", "183839.755000", "183841.245000", "183842.735000", "183844.225000", "183845.715000", "183847.205000", "183848.695000", "183850.185000", "183851.675000", "183853.165000", "183854.655000", "183856.145000", "183857.635000", "183859.125000", "183900.615000", "183902.105000", "183903.595000", "183905.085000", "183906.575000", "183908.065000", "183909.555000", "183911.045000", "183912.535000", "183914.025000", "183915.515000", "183917.005000", "183918.495000", "183919.985000", "183921.475000", "183922.965000", "183924.455000", "183925.945000", "183927.435000", "183928.925000", "183930.415000", "183931.905000", "183933.395000", "183934.885000", "183936.375000", "183937.865000", "183939.355000", "183940.845000", "183942.335000", "183943.825000", "183945.315000", "183946.805000", "183948.295000", "183949.785000", "183951.275000", "183952.765000", "183954.255000", "183955.745000", "183957.235000", "183958.725000", "184000.215000", "184001.705000", "184003.195000", "184004.685000", "184006.175000", "184007.665000", "184009.155000", "184010.645000", "184012.135000", "184013.625000", "184015.115000", "184016.605000", "184018.095000", "184019.585000", "184021.075000", "184022.565000", "184024.055000", "184025.545000", "184027.035000", "184028.525000", "184030.015000", "184031.505000", "184032.995000", "184034.485000", "184035.975000", "184037.465000", "184038.955000", "184040.445000", "184041.935000", "184043.425000", "184044.915000", "184046.405000", "184047.895000", "184049.385000", "184050.875000", "184052.365000", "184053.855000", "184055.345000", "184056.835000", "184058.325000", "184059.815000", "184101.305000", "184102.795000", "184104.285000", "184105.775000", "184107.265000", "184108.755000", "184110.245000", "184111.735000", "184113.225000", "184114.715000", "184116.205000", "184117.695000", "184119.185000", "184120.675000", "184122.165000", "184123.655000", "184125.145000", "184126.635000", "184128.125000", "184129.615000", "184131.105000", "184132.595000", "184134.085000", "184135.575000", "184137.065000", "184138.555000", "184140.045000", "184141.535000", "184143.025000", "184144.515000", "184146.005000", "184147.495000", "184148.985000", "184150.475000", "184151.965000"],
      "ContentTime": ["183748.397000", "183748.400000", "183748.402000", "183748.405000", "183748.407000", "183748.410000", "183748.412000", "183748.415000", "183748.417000", "183808.395000", "183808.398000", "183808.400000", "183808.403000", "183808.405000", "183808.408000", "183808.410000", "183808.413000", "183808.415000", "183808.418000", "183808.420000", "183808.423000", "183808.425000", "183808.428000", "183808.430000", "183808.433000", "183808.435000", "183808.438000", "183808.440000", "183808.443000", "183808.446000", "183828.378000", "183828.381000", "183828.383000", "183828.386000", "183828.388000", "183828.390000", "183828.393000", "183828.395000", "183828.398000", "183828.400000", "183828.403000", "183828.405000", "183828.408000", "183828.410000", "183828.413000", "183828.415000", "183828.417000", "183828.420000", "183828.422000", "183828.425000", "183848.423000", "183848.425000", "183848.428000", "183848.430000", "183848.433000", "183848.436000", "183848.438000", "183848.441000", "183848.443000", "183848.446000", "183848.448000", "183848.451000", "183848.454000", "183848.456000", "183848.459000", "183848.461000", "183848.464000", "183848.466000", "183848.469000", "183848.471000", "183908.388000", "183908.391000", "183908.393000", "183908.396000", "183908.398000", "183908.401000", "183908.403000", "183908.406000", "183908.408000", "183908.411000", "183908.413000", "183908.415000", "183908.418000", "183908.420000", "183908.423000", "183908.425000", "183908.428000", "183908.430000", "183908.433000", "183908.435000", "183908.438000", "183948.434000", "183948.437000", "183948.439000", "183948.442000", "183948.445000", "183948.447000", "183948.450000", "183948.452000", "183948.454000", "183948.457000", "183948.459000", "183948.462000", "183948.464000", "183948.467000", "183948.469000", "183948.472000", "183948.474000", "183948.477000", "183948.479000", "183948.482000", "183948.484000", "183948.487000", "183948.489000", "183948.492000", "183948.494000", "183948.497000", "183948.499000", "183948.502000", "183948.504000", "183948.507000", "183948.509000", "184028.402000", "184028.404000", "184028.407000", "184028.409000", "184028.412000", "184028.414000", "184028.417000", "184028.419000", "184028.422000", "184028.424000", "184028.427000", "184028.429000", "184028.431000", "184028.434000", "184028.436000", "184028.439000", "184028.441000", "184028.444000", "184028.446000", "184028.449000", "184028.451000", "184028.454000", "184028.456000", "184028.459000", "184028.461000", "184028.464000", "184028.466000", "184108.415000", "184108.418000", "184108.421000", "184108.423000", "184108.426000", "184108.428000", "184108.431000", "184108.433000", "184108.436000", "184108.438000", "184108.441000", "184108.443000", "184108.446000", "184108.448000", "184108.450000", "184108.453000", "184108.455000", "184108.458000", "184108.460000", "184108.463000", "184108.465000", "184108.468000", "184108.470000", "184108.473000", "184108.475000", "184108.478000", "184108.480000", "184148.429000", "184148.431000", "184148.434000", "184148.436000", "184148.439000", "184148.442000", "184148.444000", "184148.447000", "184148.449000", "184148.452000", "184148.454000", "184148.457000", "184148.459000", "184148.462000", "184148.464000", "184148.467000", "184148.469000", "184148.472000", "184148.474000", "184148.477000", "184148.479000", "184148.482000", "184148.484000", "184148.487000", "184148.489000", "184148.492000", "184154.406000", "184154.409000", "184154.411000", "184154.414000", "184154.416000"],
      "InstanceCreationTime": ["183748.397000", "183748.400000", "183748.402000", "183748.405000", "183748.407000", "183748.410000", "183748.412000", "183748.415000", "183748.417000", "183808.395000", "183808.398000", "183808.400000", "183808.403000", "183808.405000", "183808.408000", "183808.410000", "183808.413000", "183808.415000", "183808.418000", "183808.420000", "183808.423000", "183808.425000", "183808.428000", "183808.430000", "183808.433000", "183808.435000", "183808.438000", "183808.440000", "183808.443000", "183808.446000", "183828.378000", "183828.381000", "183828.383000", "183828.386000", "183828.388000", "183828.390000", "183828.393000", "183828.395000", "183828.398000", "183828.400000", "183828.403000", "183828.405000", "183828.408000", "183828.410000", "183828.413000", "183828.415000", "183828.417000", "183828.420000", "183828.422000", "183828.425000", "183848.423000", "183848.425000", "183848.428000", "183848.430000", "183848.433000", "183848.436000", "183848.438000", "183848.441000", "183848.443000", "183848.446000", "183848.448000", "183848.451000", "183848.454000", "183848.456000", "183848.459000", "183848.461000", "183848.464000", "183848.466000", "183848.469000", "183848.471000", "183908.388000", "183908.391000", "183908.393000", "183908.396000", "183908.398000", "183908.401000", "183908.403000", "183908.406000", "183908.408000", "183908.411000", "183908.413000", "183908.415000", "183908.418000", "183908.420000", "183908.423000", "183908.425000", "183908.428000", "183908.430000", "183908.433000", "183908.435000", "183908.438000", "183948.434000", "183948.437000", "183948.439000", "183948.442000", "183948.445000", "183948.447000", "183948.450000", "183948.452000", "183948.454000", "183948.457000", "183948.459000", "183948.462000", "183948.464000", "183948.467000", "183948.469000", "183948.472000", "183948.474000", "183948.477000", "183948.479000", "183948.482000", "183948.484000", "183948.487000", "183948.489000", "183948.492000", "183948.494000", "183948.497000", "183948.499000", "183948.502000", "183948.504000", "183948.507000", "183948.509000", "184028.402000", "184028.404000", "184028.407000", "184028.409000", "184028.412000", "184028.414000", "184028.417000", "184028.419000", "184028.422000", "184028.424000", "184028.427000", "184028.429000", "184028.431000", "184028.434000", "184028.436000", "184028.439000", "184028.441000", "184028.444000", "184028.446000", "184028.449000", "184028.451000", "184028.454000", "184028.456000", "184028.459000", "184028.461000", "184028.464000", "184028.466000", "184108.415000", "184108.418000", "184108.421000", "184108.423000", "184108.426000", "184108.428000", "184108.431000", "184108.433000", "184108.436000", "184108.438000", "184108.441000", "184108.443000", "184108.446000", "184108.448000", "184108.450000", "184108.453000", "184108.455000", "184108.458000", "184108.460000", "184108.463000", "184108.465000", "184108.468000", "184108.470000", "184108.473000", "184108.475000", "184108.478000", "184108.480000", "184148.429000", "184148.431000", "184148.434000", "184148.436000", "184148.439000", "184148.442000", "184148.444000", "184148.447000", "184148.449000", "184148.452000", "184148.454000", "184148.457000", "184148.459000", "184148.462000", "184148.464000", "184148.467000", "184148.469000", "184148.472000", "184148.474000", "184148.477000", "184148.479000", "184148.482000", "184148.484000", "184148.487000", "184148.489000", "184148.492000", "184154.406000", "184154.409000", "184154.411000", "184154.414000", "184154.416000"],
      "InstanceNumber": [1, 2, 3, 4, 5, 6, 7, 8, 9, 10, 11, 12, 13, 14, 15, 16, 17, 18, 19, 20, 21, 22, 23, 24, 25, 26, 27, 28, 29, 30, 31, 32, 33, 34, 35, 36, 37, 38, 39, 40, 41, 42, 43, 44, 45, 46, 47, 48, 49, 50, 51, 52, 53, 54, 55, 56, 57, 58, 59, 60, 61, 62, 63, 64, 65, 66, 67, 68, 69, 70, 71, 72, 73, 74, 75, 76, 77, 78, 79, 80, 81, 82, 83, 84, 85, 86, 87, 88, 89, 90, 91, 92, 93, 94, 95, 96, 97, 98, 99, 100, 101, 102, 103, 104, 105, 106, 107, 108, 109, 110, 111, 112, 113, 114, 115, 116, 117, 118, 119, 120, 121, 122, 123, 124, 125, 126, 127, 128, 129, 130, 131, 132, 133, 134, 135, 136, 137, 138, 139, 140, 141, 142, 143, 144, 145, 146, 147, 148, 149, 150, 151, 152, 153, 154, 155, 156, 157, 158, 159, 160, 161, 162, 163, 164, 165, 166, 167, 168, 169, 170, 171, 172, 173, 174, 175, 176, 177, 178, 179, 180, 181, 182, 183, 184, 185, 186, 187, 188, 189, 190, 191, 192, 193, 194, 195, 196, 197, 198, 199, 200, 201, 202, 203, 204, 205, 206, 207],
      "WindowCenter": [4834.0, 4836.0, 4818.0, 4818.0, 4818.0, 4846.0, 4844.0, 4834.0, 4840.0, 4846.0, 4848.0, 4844.0, 4842.0, 4846.0, 4820.0, 4818.0, 4846.0, 4868.0, 4846.0, 4850.0, 4852.0, 4850.0, 4848.0, 4848.0, 4846.0, 4844.0, 4846.0, 4848.0, 4850.0, 4872.0, 4872.0, 4872.0, 4850.0, 4844.0, 4848.0, 4846.0, 4846.0, 4846.0, 4870.0, 4848.0, 4848.0, 4850.0, 4876.0, 4852.0, 4846.0, 4822.0, 4842.0, 4842.0, 4848.0, 4872.0, 4840.0, 4870.0, 4848.0, 4846.0, 4824.0, 4822.0, 4848.0, 4848.0, 4850.0, 4872.0, 4850.0, 4854.0, 4874.0, 4848.0, 4848.0, 4844.0, 4824.0, 4844.0, 4848.0, 4874.0, 4850.0, 4848.0, 4848.0, 4850.0, 4846.0, 4848.0, 4846.0, 4846.0, 4848.0, 4850.0, 4846.0, 4850.0, 4852.0, 4852.0, 4850.0, 4846.0, 4848.0, 4848.0, 4850.0, 4852.0, 4848.0, 4850.0, 4850.0, 4872.0, 4872.0, 4850.0, 4846.0, 4822.0, 4844.0, 4874.0, 4874.0, 4848.0, 4850.0, 4848.0, 4848.0, 4852.0, 4848.0, 4850.0, 4850.0, 4848.0, 4876.0, 4850.0, 4846.0, 4854.0, 4874.0, 4850.0, 4850.0, 4850.0, 4874.0, 4874.0, 4850.0, 4848.0, 4848.0, 4850.0, 4852.0, 4874.0, 4876.0, 4874.0, 4848.0, 4872.0, 4870.0, 4846.0, 4846.0, 4850.0, 4872.0, 4870.0, 4850.0, 4870.0, 4874.0, 4874.0, 4874.0, 4848.0, 4852.0, 4850.0, 4848.0, 4850.0, 4876.0, 4850.0, 4848.0, 4874.0, 4848.0, 4872.0, 4850.0, 4850.0, 4850.0, 4852.0, 4850.0, 4850.0, 4876.0, 4876.0, 4854.0, 4874.0, 4872.0, 4850.0, 4850.0, 4846.0, 4850.0, 4872.0, 4874.0, 4872.0, 4852.0, 4850.0, 4852.0, 4874.0, 4872.0, 4854.0, 4850.0, 4850.0, 4852.0, 4848.0, 4852.0, 4874.0, 4874.0, 4852.0, 4850.0, 4850.0, 4850.0, 4848.0, 4854.0, 4874.0, 4852.0, 4850.0, 4850.0, 4872.0, 4850.0, 4850.0, 4852.0, 4848.0, 4850.0, 4850.0, 4852.0, 4850.0, 4876.0, 4874.0, 4878.0, 4852.0, 4850.0],
      "WindowWidth": [18636.0, 18628.0, 18594.0, 18586.0, 18596.0, 18646.0, 18648.0, 18642.0, 18644.0, 18642.0, 18634.0, 18636.0, 18634.0, 18638.0, 18598.0, 18596.0, 18640.0, 18682.0, 18652.0, 18650.0, 18648.0, 18648.0, 18650.0, 18646.0, 18634.0, 18634.0, 18636.0, 18642.0, 18646.0, 18682.0, 18688.0, 18682.0, 18650.0, 18638.0, 18644.0, 18644.0, 18642.0, 18640.0, 18678.0, 18652.0, 18646.0, 18644.0, 18684.0, 18648.0, 18638.0, 18606.0, 18628.0, 18628.0, 18642.0, 18690.0, 18648.0, 18686.0, 18642.0, 18632.0, 18598.0, 18598.0, 18640.0, 18650.0, 18642.0, 18676.0, 18644.0, 18650.0, 18686.0, 18642.0, 18638.0, 18632.0, 18604.0, 18632.0, 18636.0, 18682.0, 18644.0, 18638.0, 18642.0, 18650.0, 18640.0, 18640.0, 18638.0, 18632.0, 18638.0, 18640.0, 18636.0, 18638.0, 18638.0, 18638.0, 18634.0, 18628.0, 18634.0, 18628.0, 18636.0, 18638.0, 18636.0, 18638.0, 18638.0, 18678.0, 18682.0, 18640.0, 18632.0, 18604.0, 18632.0, 18672.0, 18690.0, 18648.0, 18642.0, 18638.0, 18642.0, 18644.0, 18636.0, 18636.0, 18638.0, 18646.0, 18678.0, 18640.0, 18634.0, 18640.0, 18678.0, 18646.0, 18640.0, 18636.0, 18678.0, 18676.0, 18640.0, 18646.0, 18644.0, 18638.0, 18642.0, 18676.0, 18674.0, 18672.0, 18640.0, 18682.0, 18680.0, 18644.0, 18638.0, 18640.0, 18678.0, 18680.0, 18646.0, 18678.0, 18684.0, 18678.0, 18672.0, 18644.0, 18644.0, 18640.0, 18638.0, 18640.0, 18676.0, 18640.0, 18638.0, 18672.0, 18636.0, 18682.0, 18640.0, 18638.0, 18642.0, 18640.0, 18646.0, 18644.0, 18684.0, 18676.0, 18638.0, 18674.0, 18688.0, 18644.0, 18638.0, 18638.0, 18644.0, 18682.0, 18680.0, 18674.0, 18642.0, 18642.0, 18636.0, 18678.0, 18676.0, 18642.0, 18642.0, 18638.0, 18638.0, 18636.0, 18638.0, 18674.0, 18676.0, 18642.0, 18636.0, 18636.0, 18642.0, 18642.0, 18642.0, 18676.0, 18638.0, 18636.0, 18640.0, 18678.0, 18642.0, 18640.0, 18636.0, 18636.0, 18642.0, 18640.0, 18644.0, 18634.0, 18668.0, 18678.0, 18676.0, 18644.0, 18634.0]
    },
    "slices": {}
  }
}