{
  "AcquisitionMatrixPE": 104,
  "AcquisitionNumber": 1,
  "AcquisitionTime": "11:52:8.405000",
  "BandwidthPerPixelPhaseEncode": 17.17,
  "BaseResolution": 104,
  "BodyPartExamined": "BRAIN",
  "CoilCombinationMethod": "Sum of Squares",
  "ConsistencyInfo": "N4_VE11C_LATEST_20160120",
  "ConversionSoftware": "dcm2niix",
  "ConversionSoftwareVersion": "v1.0.20211006",
  "DerivedVendorReportedEchoSpacing": 0.000560011,
  "DeviceSerialNumber": "167006",
  "DwellTime": 2.1e-06,
  "EchoTime": 0.037,
  "EchoTime1": 0.037,
  "EchoTime2": 0.001,
  "EchoTrainLength": 104,
  "EffectiveEchoSpacing": 0.000560011,
  "FlipAngle": 52,
  "HeudiconvVersion": "0.10.0",
  "ImageComments": "Unaliased MB4/PE3/LB",
  "ImageOrientationPatientDICOM": [0.995848, 0.0625422, 0.0661513, -0.0342538, 0.930675, -0.364239],
  "ImageOrientationText": "Tra>Cor(-21.2)>Sag(4.8)",
  "ImageType": [
    "ORIGINAL",
    "PRIMARY",
    "P",
    "MB",
    "ND",
    "MOSAIC",
    "PHASE"
],
  "ImagingFrequency": 123.259,
  "InPlanePhaseEncodingDirectionDICOM": "COL",
  "InstitutionAddress": "Chemin Queen-Mary 4565,Montreal,District,CA,H3W 1W5",
  "InstitutionName": "IUGM",
  "InstitutionalDepartmentName": "Department",
  "MRAcquisitionType": "2D",
  "MagneticFieldStrength": 3,
  "Manufacturer": "Siemens",
  "ManufacturersModelName": "Prisma_fit",
  "MatrixCoilMode": "SENSE",
  "Modality": "MR",
  "MultibandAccelerationFactor": 4,
  "PartialFourier": 1,
  "PatientPosition": "HFS",
  "PercentPhaseFOV": 100,
  "PercentSampling": 100,
  "PhaseEncodingDirection": "j",
  "PhaseEncodingSteps": 104,
  "PhaseResolution": 1,
  "PixelBandwidth": 2290,
  "ProcedureStepDescription": "games^gamepad",
  "ProtocolName": "func_task-gamepad_run-2",
  "PulseSequenceDetails": "%CustomerSeq%\\cmrr_mbep2d_bold",
  "ReceiveCoilActiveElements": "HC1-7;NC1,2",
  "ReceiveCoilName": "HeadNeck_64",
  "ReconMatrixPE": 104,
  "RepetitionTime": 1.49,
  "SAR": 0.0539671,
  "ScanOptions": "FS",
  "ScanningSequence": "EP",
  "SequenceName": "epfid2d1_104",
  "SequenceVariant": "SK\\SS",
  "SeriesDescription": "func_task-gamepad_run-2",
  "SeriesNumber": 14,
  "ShimSetting": [636, -7192, -8836, 609, 90, 18, -31, -4],
  "SliceThickness": 2,
  "SliceTiming": [0, 0.7825, 0.0975, 0.8825, 0.195, 0.98, 0.2925, 1.0775, 0.3925, 1.175, 0.49, 1.2725, 0.5875, 1.3725, 0.685, 0, 0.7825, 0.0975, 0.8825, 0.195, 0.98, 0.2925, 1.0775, 0.3925, 1.175, 0.49, 1.2725, 0.5875, 1.3725, 0.685, 0, 0.7825, 0.0975, 0.8825, 0.195, 0.98, 0.2925, 1.0775, 0.3925, 1.175, 0.49, 1.2725, 0.5875, 1.3725, 0.685, 0, 0.7825, 0.0975, 0.8825, 0.195, 0.98, 0.2925, 1.0775, 0.3925, 1.175, 0.49, 1.2725, 0.5875, 1.3725, 0.685],
  "SoftwareVersions": "syngo MR E11",
  "SpacingBetweenSlices": 2,
  "StationName": "MRC35049",
  "TaskName": "gamepad",
  "TotalReadoutTime": 0.0576811,
  "TxRefAmp": 289.443,
  "WipMemBlock": "3f73bb61-4b87-49b8-8bae-b5aea2d437e1||Sequence: R016 ve11c/master r/e634e98; Dec 19 2017 11:00:25 by eja",
  "dcmmeta_affine": [
    [-1.9916952848434448, -0.06850753724575043, 0.16869138181209564, 106.18244934082031],
    [-0.1250843107700348, 1.8613505363464355, -0.7209216356277466, -52.05488204956055],
    [0.13230262696743011, 0.7284784317016602, 1.8579061031341553, -72.04032135009766],
    [0.0, 0.0, 0.0, 1.0]
],
  "dcmmeta_reorient_transform": [
    [0.0, -1.0, 0.0, 103.0],
    [1.0, 0.0, 0.0, 0.0],
    [0.0, 0.0, 1.0, 0.0],
    [0.0, 0.0, 0.0, 1.0]
],
  "dcmmeta_shape": [104, 104, 60, 207],
  "dcmmeta_slice_dim": 2,
  "dcmmeta_version": 0.6,
  "global": {
    "const": {
      "AcquisitionMatrix": [104, 0, 0, 104],
      "AngioFlag": "N",
      "BitsAllocated": 16,
      "BitsStored": 16,
      "BodyPartExamined": "BRAIN",
      "Columns": 832,
      "EchoNumbers": 1,
      "EchoTime": 37.0,
      "EchoTrainLength": 104,
      "FlipAngle": 52.0,
      "HighBit": 15,
      "ImageOrientationPatient": [0.99584762051523, 0.06254215217556, 0.06615131076111, -0.034253768851, 0.93067528183916, -0.3642392058704],
      "ImagePositionPatient": [-799.16649991461, -862.72651874771, 220.00094239061],
      "ImageType": [
        "ORIGINAL",
        "PRIMARY",
        "P",
        "MB",
        "ND",
        "MOSAIC"
],
      "ImagedNucleus": "1H",
      "ImagingFrequency": 123.258871,
      "InPlanePhaseEncodingDirection": "COL",
      "LargestImagePixelValue": 4095,
      "MRAcquisitionType": "2D",
      "MagneticFieldStrength": 3.0,
      "Manufacturer": "SIEMENS",
      "ManufacturerModelName": "Prisma_fit",
      "Modality": "MR",
      "NumberOfAverages": 1.0,
      "NumberOfPhaseEncodingSteps": 104,
      "PercentPhaseFieldOfView": 100.0,
      "PercentSampling": 100.0,
      "PerformedProcedureStepStartTime": "113628.679000",
      "PhotometricInterpretation": "MONOCHROME2",
      "PixelBandwidth": 2290.0,
      "PixelRepresentation": 0,
      "PixelSpacing": [2.0, 2.0],
      "ProtocolName": "func_task-gamepad_run-2",
      "RepetitionTime": 1490.0,
      "RescaleIntercept": -4096.0,
      "RescaleSlope": 2.0,
      "RescaleType": "US",
      "Rows": 832,
      "SAR": 0.0539671435329,
      "SamplesPerPixel": 1,
      "ScanOptions": "FS",
      "ScanningSequence": "EP",
      "SequenceName": "epfid2d1_104",
      "SequenceVariant": [
        "SK",
        "SS"
],
      "SeriesDescription": "func_task-gamepad_run-2",
      "SeriesNumber": 14,
      "SeriesTime": "115324.593000",
      "SliceLocation": -39.202300413665,
      "SliceThickness": 2.0,
      "SmallestImagePixelValue": 0,
      "SoftwareVersions": "syngo MR E11",
      "SpacingBetweenSlices": 2.0000000124042,
      "SpecificCharacterSet": "ISO_IR 100",
      "StudyID": "1",
      "StudyTime": "113628.606000",
      "TransmitCoilName": "Body",
      "VariableFlipAngleFlag": "N",
      "WindowCenterWidthExplanation": "Algo1",
      "dBdt": 0.0},
    "slices": {}
  },
  "time": {
    "samples": {
      "AcquisitionNumber": [1, 2, 3, 4, 5, 6, 7, 8, 9, 10, 11, 12, 13, 14, 15, 16, 17, 18, 19, 20, 21, 22, 23, 24, 25, 26, 27, 28, 29, 30, 31, 32, 33, 34, 35, 36, 37, 38, 39, 40, 41, 42, 43, 44, 45, 46, 47, 48, 49, 50, 51, 52, 53, 54, 55, 56, 57, 58, 59, 60, 61, 62, 63, 64, 65, 66, 67, 68, 69, 70, 71, 72, 73, 74, 75, 76, 77, 78, 79, 80, 81, 82, 83, 84, 85, 86, 87, 88, 89, 90, 91, 92, 93, 94, 95, 96, 97, 98, 99, 100, 101, 102, 103, 104, 105, 106, 107, 108, 109, 110, 111, 112, 113, 114, 115, 116, 117, 118, 119, 120, 121, 122, 123, 124, 125, 126, 127, 128, 129, 130, 131, 132, 133, 134, 135, 136, 137, 138, 139, 140, 141, 142, 143, 144, 145, 146, 147, 148, 149, 150, 151, 152, 153, 154, 155, 156, 157, 158, 159, 160, 161, 162, 163, 164, 165, 166, 167, 168, 169, 170, 171, 172, 173, 174, 175, 176, 177, 178, 179, 180, 181, 182, 183, 184, 185, 186, 187, 188, 189, 190, 191, 192, 193, 194, 195, 196, 197, 198, 199, 200, 201, 202, 203, 204, 205, 206, 207],
      "AcquisitionTime": ["115208.405000", "115209.895000", "115211.385000", "115212.875000", "115214.365000", "115215.855000", "115217.345000", "115218.835000", "115220.325000", "115221.815000", "115223.305000", "115224.795000", "115226.285000", "115227.775000", "115229.265000", "115230.755000", "115232.245000", "115233.735000", "115235.225000", "115236.715000", "115238.205000", "115239.695000", "115241.185000", "115242.675000", "115244.165000", "115245.655000", "115247.145000", "115248.635000", "115250.125000", "115251.615000", "115253.105000", "115254.595000", "115256.085000", "115257.575000", "115259.065000", "115300.555000", "115302.045000", "115303.535000", "115305.025000", "115306.515000", "115308.005000", "115309.495000", "115310.985000", "115312.475000", "115313.965000", "115315.455000", "115316.945000", "115318.435000", "115319.925000", "115321.415000", "115322.905000", "115324.395000", "115325.885000", "115327.375000", "115328.865000", "115330.355000", "115331.845000", "115333.335000", "115334.825000", "115336.315000", "115337.805000", "115339.295000", "115340.785000", "115342.275000", "115343.765000", "115345.255000", "115346.745000", "115348.235000", "115349.725000", "115351.215000", "115352.705000", "115354.195000", "115355.685000", "115357.175000", "115358.665000", "115400.155000", "115401.645000", "115403.135000", "115404.625000", "115406.115000", "115407.605000", "115409.095000", "115410.585000", "115412.075000", "115413.565000", "115415.055000", "115416.545000", "115418.035000", "115419.525000", "115421.015000", "115422.505000", "115423.995000", "115425.485000", "115426.975000", "115428.465000", "115429.955000", "115431.445000", "115432.935000", "115434.425000", "115435.915000", "115437.405000", "115438.895000", "115440.385000", "115441.875000", "115443.365000", "115444.855000", "115446.345000", "115447.835000", "115449.325000", "115450.815000", "115452.305000", "115453.795000", "115455.285000", "115456.775000", "115458.265000", "115459.755000", "115501.245000", "115502.735000", "115504.225000", "115505.715000", "115507.205000", "115508.695000", "115510.185000", "115511.675000", "115513.165000", "115514.655000", "115516.145000", "115517.635000", "115519.125000", "115520.615000", "115522.105000", "115523.595000", "115525.085000", "115526.575000", "115528.065000", "115529.555000", "115531.045000", "115532.535000", "115534.025000", "115535.515000", "115537.005000", "115538.495000", "115539.985000", "115541.475000", "115542.965000", "115544.455000", "115545.945000", "115547.435000", "115548.925000", "115550.415000", "115551.905000", "115553.395000", "115554.885000", "115556.375000", "115557.865000", "115559.355000", "115600.845000", "115602.335000", "115603.825000", "115605.315000", "115606.805000", "115608.295000", "115609.785000", "115611.275000", "115612.765000", "115614.255000", "115615.745000", "115617.235000", "115618.725000", "115620.215000", "115621.705000", "115623.195000", "115624.685000", "115626.175000", "115627.665000", "115629.155000", "115630.645000", "115632.135000", "115633.625000", "115635.115000", "115636.605000", "115638.095000", "115639.585000", "115641.075000", "115642.565000", "115644.055000", "115645.545000", "115647.035000", "115648.525000", "115650.015000", "115651.505000", "115652.995000", "115654.485000", "115655.975000", "115657.465000", "115658.955000", "115700.445000", "115701.935000", "115703.425000", "115704.915000", "115706.405000", "115707.895000", "115709.385000", "115710.875000", "115712.365000", "115713.855000", "115715.345000"],
      "ContentTime": ["115324.595000", "115324.598000", "115324.600000", "115324.603000", "115324.611000", "115324.614000", "115324.616000", "115324.619000", "115324.621000", "115324.624000", "115324.626000", "115324.629000", "115324.632000", "115324.634000", "115324.637000", "115324.639000", "115324.642000", "115324.644000", "115324.647000", "115324.649000", "115324.652000", "115324.654000", "115344.547000", "115344.550000", "115344.552000", "115344.555000", "115344.557000", "115344.560000", "115344.562000", "115344.565000", "115344.567000", "115344.570000", "115344.572000", "115344.575000", "115344.583000", "115344.586000", "115344.588000", "115344.591000", "115344.594000", "115344.596000", "115344.599000", "115344.601000", "115344.604000", "115404.547000", "115404.550000", "115404.552000", "115404.555000", "115404.558000", "115404.560000", "115404.563000", "115404.565000", "115404.568000", "115404.570000", "115404.573000", "115404.576000", "115404.578000", "115404.581000", "115404.583000", "115404.586000", "115404.588000", "115404.591000", "115404.593000", "115404.596000", "115424.534000", "115424.537000", "115424.540000", "115424.542000", "115424.545000", "115424.547000", "115424.550000", "115424.552000", "115424.555000", "115424.557000", "115424.560000", "115424.569000", "115424.571000", "115424.574000", "115424.576000", "115424.579000", "115424.581000", "115424.584000", "115424.586000", "115424.589000", "115444.545000", "115444.548000", "115444.550000", "115444.553000", "115444.555000", "115444.558000", "115444.560000", "115444.563000", "115444.565000", "115444.568000", "115444.570000", "115444.573000", "115444.575000", "115444.578000", "115444.580000", "115444.583000", "115444.585000", "115444.588000", "115444.590000", "115444.593000", "115524.570000", "115524.573000", "115524.575000", "115524.578000", "115524.580000", "115524.583000", "115524.585000", "115524.588000", "115524.590000", "115524.593000", "115524.595000", "115524.598000", "115524.600000", "115524.603000", "115524.605000", "115524.608000", "115524.610000", "115524.613000", "115524.615000", "115524.618000", "115524.620000", "115524.623000", "115524.625000", "115524.628000", "115524.630000", "115524.633000", "115524.636000", "115524.638000", "115604.577000", "115604.580000", "115604.583000", "115604.585000", "115604.588000", "115604.590000", "115604.593000", "115604.595000", "115604.598000", "115604.601000", "115604.603000", "115604.606000", "115604.608000", "115604.611000", "115604.613000", "115604.616000", "115604.618000", "115604.621000", "115604.623000", "115604.626000", "115604.628000", "115604.631000", "115604.633000", "115604.636000", "115604.638000", "115604.641000", "115604.643000", "115644.598000", "115644.601000", "115644.604000", "115644.607000", "115644.610000", "115644.613000", "115644.616000", "115644.619000", "115644.622000", "115644.625000", "115644.628000", "115644.631000", "115644.634000", "115644.636000", "115644.639000", "115644.641000", "115644.644000", "115644.646000", "115644.649000", "115644.651000", "115644.654000", "115644.656000", "115644.659000", "115644.661000", "115644.664000", "115644.667000", "115717.515000", "115717.518000", "115717.520000", "115717.523000", "115717.525000", "115717.528000", "115717.530000", "115717.533000", "115717.535000", "115717.538000", "115717.540000", "115717.543000", "115717.545000", "115717.548000", "115717.550000", "115717.553000", "115717.556000", "115717.558000", "115717.561000", "115717.563000", "115717.566000", "115717.568000", "115717.571000"],
      "InstanceCreationTime": ["115324.595000", "115324.598000", "115324.600000", "115324.603000", "115324.611000", "115324.614000", "115324.616000", "115324.619000", "115324.621000", "115324.624000", "115324.626000", "115324.629000", "115324.632000", "115324.634000", "115324.637000", "115324.639000", "115324.642000", "115324.644000", "115324.647000", "115324.649000", "115324.652000", "115324.654000", "115344.547000", "115344.550000", "115344.552000", "115344.555000", "115344.557000", "115344.560000", "115344.562000", "115344.565000", "115344.567000", "115344.570000", "115344.572000", "115344.575000", "115344.583000", "115344.586000", "115344.588000", "115344.591000", "115344.594000", "115344.596000", "115344.599000", "115344.601000", "115344.604000", "115404.547000", "115404.550000", "115404.552000", "115404.555000", "115404.558000", "115404.560000", "115404.563000", "115404.565000", "115404.568000", "115404.570000", "115404.573000", "115404.576000", "115404.578000", "115404.581000", "115404.583000", "115404.586000", "115404.588000", "115404.591000", "115404.593000", "115404.596000", "115424.534000", "115424.537000", "115424.540000", "115424.542000", "115424.545000", "115424.547000", "115424.550000", "115424.552000", "115424.555000", "115424.557000", "115424.560000", "115424.569000", "115424.571000", "115424.574000", "115424.576000", "115424.579000", "115424.581000", "115424.584000", "115424.586000", "115424.589000", "115444.545000", "115444.548000", "115444.550000", "115444.553000", "115444.555000", "115444.558000", "115444.560000", "115444.563000", "115444.565000", "115444.568000", "115444.570000", "115444.573000", "115444.575000", "115444.578000", "115444.580000", "115444.583000", "115444.585000", "115444.588000", "115444.590000", "115444.593000", "115524.570000", "115524.573000", "115524.575000", "115524.578000", "115524.580000", "115524.583000", "115524.585000", "115524.588000", "115524.590000", "115524.593000", "115524.595000", "115524.598000", "115524.600000", "115524.603000", "115524.605000", "115524.608000", "115524.610000", "115524.613000", "115524.615000", "115524.618000", "115524.620000", "115524.623000", "115524.625000", "115524.628000", "115524.630000", "115524.633000", "115524.636000", "115524.638000", "115604.577000", "115604.580000", "115604.583000", "115604.585000", "115604.588000", "115604.590000", "115604.593000", "115604.595000", "115604.598000", "115604.601000", "115604.603000", "115604.606000", "115604.608000", "115604.611000", "115604.613000", "115604.616000", "115604.618000", "115604.621000", "115604.623000", "115604.626000", "115604.628000", "115604.631000", "115604.633000", "115604.636000", "115604.638000", "115604.641000", "115604.643000", "115644.598000", "115644.601000", "115644.604000", "115644.607000", "115644.610000", "115644.613000", "115644.616000", "115644.619000", "115644.622000", "115644.625000", "115644.628000", "115644.631000", "115644.634000", "115644.636000", "115644.639000", "115644.641000", "115644.644000", "115644.646000", "115644.649000", "115644.651000", "115644.654000", "115644.656000", "115644.659000", "115644.661000", "115644.664000", "115644.667000", "115717.515000", "115717.518000", "115717.520000", "115717.523000", "115717.525000", "115717.528000", "115717.530000", "115717.533000", "115717.535000", "115717.538000", "115717.540000", "115717.543000", "115717.545000", "115717.548000", "115717.550000", "115717.553000", "115717.556000", "115717.558000", "115717.561000", "115717.563000", "115717.566000", "115717.568000", "115717.571000"],
      "InstanceNumber": [1, 2, 3, 4, 5, 6, 7, 8, 9, 10, 11, 12, 13, 14, 15, 16, 17, 18, 19, 20, 21, 22, 23, 24, 25, 26, 27, 28, 29, 30, 31, 32, 33, 34, 35, 36, 37, 38, 39, 40, 41, 42, 43, 44, 45, 46, 47, 48, 49, 50, 51, 52, 53, 54, 55, 56, 57, 58, 59, 60, 61, 62, 63, 64, 65, 66, 67, 68, 69, 70, 71, 72, 73, 74, 75, 76, 77, 78, 79, 80, 81, 82, 83, 84, 85, 86, 87, 88, 89, 90, 91, 92, 93, 94, 95, 96, 97, 98, 99, 100, 101, 102, 103, 104, 105, 106, 107, 108, 109, 110, 111, 112, 113, 114, 115, 116, 117, 118, 119, 120, 121, 122, 123, 124, 125, 126, 127, 128, 129, 130, 131, 132, 133, 134, 135, 136, 137, 138, 139, 140, 141, 142, 143, 144, 145, 146, 147, 148, 149, 150, 151, 152, 153, 154, 155, 156, 157, 158, 159, 160, 161, 162, 163, 164, 165, 166, 167, 168, 169, 170, 171, 172, 173, 174, 175, 176, 177, 178, 179, 180, 181, 182, 183, 184, 185, 186, 187, 188, 189, 190, 191, 192, 193, 194, 195, 196, 197, 198, 199, 200, 201, 202, 203, 204, 205, 206, 207],
      "WindowCenter": [4834.0, 4832.0, 4836.0, 4832.0, 4804.0, 4806.0, 4832.0, 4834.0, 4834.0, 4830.0, 4832.0, 4838.0, 4836.0, 4832.0, 4810.0, 4810.0, 4832.0, 4832.0, 4830.0, 4804.0, 4834.0, 4838.0, 4830.0, 4808.0, 4828.0, 4836.0, 4806.0, 4832.0, 4832.0, 4836.0, 4834.0, 4832.0, 4834.0, 4834.0, 4834.0, 4806.0, 4832.0, 4834.0, 4832.0, 4832.0, 4840.0, 4832.0, 4804.0, 4806.0, 4834.0, 4834.0, 4834.0, 4808.0, 4832.0, 4838.0, 4834.0, 4810.0, 4806.0, 4832.0, 4836.0, 4838.0, 4830.0, 4808.0, 4812.0, 4836.0, 4836.0, 4838.0, 4830.0, 4808.0, 4834.0, 4838.0, 4832.0, 4810.0, 4832.0, 4832.0, 4808.0, 4808.0, 4808.0, 4808.0, 4842.0, 4870.0, 4848.0, 4848.0, 4866.0, 4806.0, 4806.0, 4808.0, 4830.0, 4838.0, 4840.0, 4840.0, 4832.0, 4834.0, 4842.0, 4844.0, 4840.0, 4836.0, 4808.0, 4808.0, 4834.0, 4834.0, 4810.0, 4808.0, 4832.0, 4838.0, 4836.0, 4804.0, 4808.0, 4808.0, 4832.0, 4836.0, 4842.0, 4840.0, 4836.0, 4806.0, 4804.0, 4810.0, 4834.0, 4838.0, 4808.0, 4832.0, 4834.0, 4836.0, 4838.0, 4832.0, 4810.0, 4808.0, 4808.0, 4808.0, 4802.0, 4834.0, 4876.0, 4850.0, 4850.0, 4836.0, 4830.0, 4810.0, 4806.0, 4828.0, 4810.0, 4806.0, 4830.0, 4842.0, 4872.0, 4872.0, 4848.0, 4836.0, 4834.0, 4808.0, 4832.0, 4834.0, 4832.0, 4808.0, 4804.0, 4808.0, 4812.0, 4814.0, 4814.0, 4784.0, 4808.0, 4836.0, 4808.0, 4810.0, 4812.0, 4814.0, 4812.0, 4810.0, 4810.0, 4806.0, 4834.0, 4806.0, 4806.0, 4808.0, 4806.0, 4836.0, 4844.0, 4846.0, 4842.0, 4806.0, 4810.0, 4810.0, 4832.0, 4830.0, 4840.0, 4834.0, 4834.0, 4836.0, 4836.0, 4834.0, 4810.0, 4810.0, 4808.0, 4808.0, 4806.0, 4806.0, 4836.0, 4840.0, 4834.0, 4804.0, 4806.0, 4828.0, 4830.0, 4830.0, 4830.0, 4832.0, 4808.0, 4832.0, 4834.0, 4836.0, 4806.0, 4810.0, 4806.0],
      "WindowWidth": [18640.0, 18642.0, 18638.0, 18642.0, 18610.0, 18612.0, 18638.0, 18640.0, 18642.0, 18640.0, 18636.0, 18640.0, 18640.0, 18636.0, 18610.0, 18614.0, 18636.0, 18642.0, 18636.0, 18604.0, 18636.0, 18644.0, 18640.0, 18610.0, 18638.0, 18644.0, 18608.0, 18642.0, 18638.0, 18640.0, 18638.0, 18642.0, 18642.0, 18636.0, 18636.0, 18606.0, 18640.0, 18640.0, 18640.0, 18642.0, 18640.0, 18636.0, 18612.0, 18608.0, 18642.0, 18642.0, 18638.0, 18606.0, 18640.0, 18644.0, 18640.0, 18612.0, 18612.0, 18640.0, 18638.0, 18644.0, 18638.0, 18606.0, 18608.0, 18636.0, 18644.0, 18646.0, 18640.0, 18608.0, 18638.0, 18638.0, 18636.0, 18610.0, 18642.0, 18638.0, 18606.0, 18622.0, 18620.0, 18616.0, 18640.0, 18668.0, 18634.0, 18642.0, 18676.0, 18604.0, 18614.0, 18614.0, 18644.0, 18640.0, 18646.0, 18638.0, 18642.0, 18642.0, 18644.0, 18642.0, 18638.0, 18640.0, 18612.0, 18614.0, 18644.0, 18638.0, 18606.0, 18608.0, 18636.0, 18642.0, 18642.0, 18606.0, 18618.0, 18616.0, 18640.0, 18638.0, 18642.0, 18646.0, 18642.0, 18608.0, 18612.0, 18610.0, 18636.0, 18638.0, 18608.0, 18638.0, 18634.0, 18632.0, 18634.0, 18636.0, 18612.0, 18616.0, 18618.0, 18622.0, 18618.0, 18646.0, 18660.0, 18620.0, 18636.0, 18638.0, 18642.0, 18616.0, 18614.0, 18644.0, 18612.0, 18610.0, 18642.0, 18640.0, 18672.0, 18674.0, 18642.0, 18638.0, 18644.0, 18618.0, 18648.0, 18644.0, 18636.0, 18594.0, 18590.0, 18598.0, 18610.0, 18612.0, 18608.0, 18568.0, 18598.0, 18638.0, 18608.0, 18614.0, 18610.0, 18604.0, 18608.0, 18604.0, 18608.0, 18606.0, 18638.0, 18606.0, 18616.0, 18624.0, 18620.0, 18646.0, 18642.0, 18634.0, 18638.0, 18608.0, 18622.0, 18618.0, 18646.0, 18640.0, 18648.0, 18646.0, 18638.0, 18640.0, 18638.0, 18638.0, 18608.0, 18620.0, 18620.0, 18618.0, 18622.0, 18614.0, 18642.0, 18642.0, 18636.0, 18610.0, 18608.0, 18640.0, 18638.0, 18640.0, 18646.0, 18644.0, 18604.0, 18642.0, 18642.0, 18642.0, 18606.0, 18618.0, 18612.0]
    },
    "slices": {}
  }
}