{
  "AcquisitionMatrixPE": 104,
  "AcquisitionNumber": 1,
  "AcquisitionTime": "11:52:8.405000",
  "B0FieldSource": "sub-01_ses-009_task-gamepad_run-02_part-mag_bold.nii.gz",
  "BandwidthPerPixelPhaseEncode": 17.17,
  "BaseResolution": 104,
  "BodyPartExamined": "BRAIN",
  "CoilCombinationMethod": "Sum of Squares",
  "ConsistencyInfo": "N4_VE11C_LATEST_20160120",
  "ConversionSoftware": "dcm2niix",
  "ConversionSoftwareVersion": "v1.0.20211006",
  "DerivedVendorReportedEchoSpacing": 0.000560011,
  "DeviceSerialNumber": "167006",
  "DwellTime": 2.1e-06,
  "EchoTime": 0.037,
  "EchoTrainLength": 104,
  "EffectiveEchoSpacing": 0.000560011,
  "FlipAngle": 52,
  "HeudiconvVersion": "0.10.0",
  "ImageComments": "Unaliased MB4/PE3/LB",
  "ImageOrientationPatientDICOM": [0.995848, 0.0625422, 0.0661513, -0.0342538, 0.930675, -0.364239],
  "ImageOrientationText": "Tra>Cor(-21.2)>Sag(4.8)",
  "ImageType": [
    "ORIGINAL",
    "PRIMARY",
    "M",
    "MB",
    "ND",
    "MOSAIC"
],
  "ImagingFrequency": 123.259,
  "InPlanePhaseEncodingDirectionDICOM": "COL",
  "InstitutionAddress": "Chemin Queen-Mary 4565,Montreal,District,CA,H3W 1W5",
  "InstitutionName": "IUGM",
  "InstitutionalDepartmentName": "Department",
  "MRAcquisitionType": "2D",
  "MagneticFieldStrength": 3,
  "Manufacturer": "Siemens",
  "ManufacturersModelName": "Prisma_fit",
  "MatrixCoilMode": "SENSE",
  "Modality": "MR",
  "MultibandAccelerationFactor": 4,
  "PartialFourier": 1,
  "PatientPosition": "HFS",
  "PercentPhaseFOV": 100,
  "PercentSampling": 100,
  "PhaseEncodingDirection": "j",
  "PhaseEncodingSteps": 104,
  "PhaseResolution": 1,
  "PixelBandwidth": 2290,
  "ProcedureStepDescription": "games^gamepad",
  "ProtocolName": "func_task-gamepad_run-2",
  "PulseSequenceDetails": "%CustomerSeq%\\cmrr_mbep2d_bold",
  "ReceiveCoilActiveElements": "HC1-7;NC1,2",
  "ReceiveCoilName": "HeadNeck_64",
  "ReconMatrixPE": 104,
  "RepetitionTime": 1.49,
  "SAR": 0.0539671,
  "ScanOptions": "FS",
  "ScanningSequence": "EP",
  "SequenceName": "epfid2d1_104",
  "SequenceVariant": "SK\\SS",
  "SeriesDescription": "func_task-gamepad_run-2",
  "SeriesNumber": 13,
  "ShimSetting": [636, -7192, -8836, 609, 90, 18, -31, -4],
  "SliceThickness": 2,
  "SliceTiming": [0, 0.7825, 0.0975, 0.8825, 0.195, 0.98, 0.2925, 1.0775, 0.3925, 1.175, 0.49, 1.2725, 0.5875, 1.3725, 0.685, 0, 0.7825, 0.0975, 0.8825, 0.195, 0.98, 0.2925, 1.0775, 0.3925, 1.175, 0.49, 1.2725, 0.5875, 1.3725, 0.685, 0, 0.7825, 0.0975, 0.8825, 0.195, 0.98, 0.2925, 1.0775, 0.3925, 1.175, 0.49, 1.2725, 0.5875, 1.3725, 0.685, 0, 0.7825, 0.0975, 0.8825, 0.195, 0.98, 0.2925, 1.0775, 0.3925, 1.175, 0.49, 1.2725, 0.5875, 1.3725, 0.685],
  "SoftwareVersions": "syngo MR E11",
  "SpacingBetweenSlices": 2,
  "StationName": "MRC35049",
  "TaskName": "gamepad",
  "TotalReadoutTime": 0.0576811,
  "TxRefAmp": 289.443,
  "WipMemBlock": "3f73bb61-4b87-49b8-8bae-b5aea2d437e1||Sequence: R016 ve11c/master r/e634e98; Dec 19 2017 11:00:25 by eja",
  "dcmmeta_affine": [
    [-1.9916952848434448, -0.06850753724575043, 0.16869138181209564, 106.18244934082031],
    [-0.1250843107700348, 1.8613505363464355, -0.7209216356277466, -52.05488204956055],
    [0.13230262696743011, 0.7284784317016602, 1.8579061031341553, -72.04032135009766],
    [0.0, 0.0, 0.0, 1.0]
],
  "dcmmeta_reorient_transform": [
    [0.0, -1.0, 0.0, 103.0],
    [1.0, 0.0, 0.0, 0.0],
    [0.0, 0.0, 1.0, 0.0],
    [0.0, 0.0, 0.0, 1.0]
],
  "dcmmeta_shape": [104, 104, 60, 207],
  "dcmmeta_slice_dim": 2,
  "dcmmeta_version": 0.6,
  "global": {
    "const": {
      "AcquisitionMatrix": [104, 0, 0, 104],
      "AngioFlag": "N",
      "BitsAllocated": 16,
      "BitsStored": 16,
      "BodyPartExamined": "BRAIN",
      "Columns": 832,
      "EchoNumbers": 1,
      "EchoTime": 37.0,
      "EchoTrainLength": 104,
      "FlipAngle": 52.0,
      "HighBit": 15,
      "ImageOrientationPatient": [0.99584762051523, 0.06254215217556, 0.06615131076111, -0.034253768851, 0.93067528183916, -0.3642392058704],
      "ImagePositionPatient": [-799.16649991461, -862.72651874771, 220.00094239061],
      "ImageType": [
        "ORIGINAL",
        "PRIMARY",
        "M",
        "MB",
        "ND",
        "MOSAIC"
],
      "ImagedNucleus": "1H",
      "ImagingFrequency": 123.258871,
      "InPlanePhaseEncodingDirection": "COL",
      "MRAcquisitionType": "2D",
      "MagneticFieldStrength": 3.0,
      "Manufacturer": "SIEMENS",
      "ManufacturerModelName": "Prisma_fit",
      "Modality": "MR",
      "NumberOfAverages": 1.0,
      "NumberOfPhaseEncodingSteps": 104,
      "PercentPhaseFieldOfView": 100.0,
      "PercentSampling": 100.0,
      "PerformedProcedureStepStartTime": "113628.679000",
      "PhotometricInterpretation": "MONOCHROME2",
      "PixelBandwidth": 2290.0,
      "PixelRepresentation": 0,
      "PixelSpacing": [2.0, 2.0],
      "ProtocolName": "func_task-gamepad_run-2",
      "RepetitionTime": 1490.0,
      "Rows": 832,
      "SAR": 0.0539671435329,
      "SamplesPerPixel": 1,
      "ScanOptions": "FS",
      "ScanningSequence": "EP",
      "SequenceName": "epfid2d1_104",
      "SequenceVariant": [
        "SK",
        "SS"
],
      "SeriesDescription": "func_task-gamepad_run-2",
      "SeriesNumber": 13,
      "SeriesTime": "115324.465000",
      "SliceLocation": -39.202300413665,
      "SliceThickness": 2.0,
      "SmallestImagePixelValue": 0,
      "SoftwareVersions": "syngo MR E11",
      "SpacingBetweenSlices": 2.0000000124042,
      "SpecificCharacterSet": "ISO_IR 100",
      "StudyID": "1",
      "StudyTime": "113628.606000",
      "TransmitCoilName": "Body",
      "VariableFlipAngleFlag": "N",
      "WindowCenterWidthExplanation": "Algo1",
      "dBdt": 0.0},
    "slices": {}
  },
  "time": {
    "samples": {
      "AcquisitionNumber": [1, 2, 3, 4, 5, 6, 7, 8, 9, 10, 11, 12, 13, 14, 15, 16, 17, 18, 19, 20, 21, 22, 23, 24, 25, 26, 27, 28, 29, 30, 31, 32, 33, 34, 35, 36, 37, 38, 39, 40, 41, 42, 43, 44, 45, 46, 47, 48, 49, 50, 51, 52, 53, 54, 55, 56, 57, 58, 59, 60, 61, 62, 63, 64, 65, 66, 67, 68, 69, 70, 71, 72, 73, 74, 75, 76, 77, 78, 79, 80, 81, 82, 83, 84, 85, 86, 87, 88, 89, 90, 91, 92, 93, 94, 95, 96, 97, 98, 99, 100, 101, 102, 103, 104, 105, 106, 107, 108, 109, 110, 111, 112, 113, 114, 115, 116, 117, 118, 119, 120, 121, 122, 123, 124, 125, 126, 127, 128, 129, 130, 131, 132, 133, 134, 135, 136, 137, 138, 139, 140, 141, 142, 143, 144, 145, 146, 147, 148, 149, 150, 151, 152, 153, 154, 155, 156, 157, 158, 159, 160, 161, 162, 163, 164, 165, 166, 167, 168, 169, 170, 171, 172, 173, 174, 175, 176, 177, 178, 179, 180, 181, 182, 183, 184, 185, 186, 187, 188, 189, 190, 191, 192, 193, 194, 195, 196, 197, 198, 199, 200, 201, 202, 203, 204, 205, 206, 207],
      "AcquisitionTime": ["115208.405000", "115209.895000", "115211.385000", "115212.875000", "115214.365000", "115215.855000", "115217.345000", "115218.835000", "115220.325000", "115221.815000", "115223.305000", "115224.795000", "115226.285000", "115227.775000", "115229.265000", "115230.755000", "115232.245000", "115233.735000", "115235.225000", "115236.715000", "115238.205000", "115239.695000", "115241.185000", "115242.675000", "115244.165000", "115245.655000", "115247.145000", "115248.635000", "115250.125000", "115251.615000", "115253.105000", "115254.595000", "115256.085000", "115257.575000", "115259.065000", "115300.555000", "115302.045000", "115303.535000", "115305.025000", "115306.515000", "115308.005000", "115309.495000", "115310.985000", "115312.475000", "115313.965000", "115315.455000", "115316.945000", "115318.435000", "115319.925000", "115321.415000", "115322.905000", "115324.395000", "115325.885000", "115327.375000", "115328.865000", "115330.355000", "115331.845000", "115333.335000", "115334.825000", "115336.315000", "115337.805000", "115339.295000", "115340.785000", "115342.275000", "115343.765000", "115345.255000", "115346.745000", "115348.235000", "115349.725000", "115351.215000", "115352.705000", "115354.195000", "115355.685000", "115357.175000", "115358.665000", "115400.155000", "115401.645000", "115403.135000", "115404.625000", "115406.115000", "115407.605000", "115409.095000", "115410.585000", "115412.075000", "115413.565000", "115415.055000", "115416.545000", "115418.035000", "115419.525000", "115421.015000", "115422.505000", "115423.995000", "115425.485000", "115426.975000", "115428.465000", "115429.955000", "115431.445000", "115432.935000", "115434.425000", "115435.915000", "115437.405000", "115438.895000", "115440.385000", "115441.875000", "115443.365000", "115444.855000", "115446.345000", "115447.835000", "115449.325000", "115450.815000", "115452.305000", "115453.795000", "115455.285000", "115456.775000", "115458.265000", "115459.755000", "115501.245000", "115502.735000", "115504.225000", "115505.715000", "115507.205000", "115508.695000", "115510.185000", "115511.675000", "115513.165000", "115514.655000", "115516.145000", "115517.635000", "115519.125000", "115520.615000", "115522.105000", "115523.595000", "115525.085000", "115526.575000", "115528.065000", "115529.555000", "115531.045000", "115532.535000", "115534.025000", "115535.515000", "115537.005000", "115538.495000", "115539.985000", "115541.475000", "115542.965000", "115544.455000", "115545.945000", "115547.435000", "115548.925000", "115550.415000", "115551.905000", "115553.395000", "115554.885000", "115556.375000", "115557.865000", "115559.355000", "115600.845000", "115602.335000", "115603.825000", "115605.315000", "115606.805000", "115608.295000", "115609.785000", "115611.275000", "115612.765000", "115614.255000", "115615.745000", "115617.235000", "115618.725000", "115620.215000", "115621.705000", "115623.195000", "115624.685000", "115626.175000", "115627.665000", "115629.155000", "115630.645000", "115632.135000", "115633.625000", "115635.115000", "115636.605000", "115638.095000", "115639.585000", "115641.075000", "115642.565000", "115644.055000", "115645.545000", "115647.035000", "115648.525000", "115650.015000", "115651.505000", "115652.995000", "115654.485000", "115655.975000", "115657.465000", "115658.955000", "115700.445000", "115701.935000", "115703.425000", "115704.915000", "115706.405000", "115707.895000", "115709.385000", "115710.875000", "115712.365000", "115713.855000", "115715.345000"],
      "ContentTime": ["115324.469000", "115324.474000", "115324.478000", "115324.482000", "115324.485000", "115324.488000", "115324.509000", "115324.513000", "115324.517000", "115324.520000", "115324.523000", "115324.527000", "115324.530000", "115324.534000", "115324.537000", "115324.540000", "115324.544000", "115324.547000", "115324.550000", "115324.554000", "115324.557000", "115324.561000", "115344.429000", "115344.433000", "115344.436000", "115344.440000", "115344.443000", "115344.447000", "115344.450000", "115344.453000", "115344.457000", "115344.460000", "115344.463000", "115344.467000", "115344.470000", "115344.474000", "115344.477000", "115344.480000", "115344.483000", "115344.487000", "115344.490000", "115344.494000", "115344.497000", "115404.430000", "115404.434000", "115404.437000", "115404.441000", "115404.444000", "115404.448000", "115404.451000", "115404.454000", "115404.458000", "115404.461000", "115404.465000", "115404.468000", "115404.471000", "115404.475000", "115404.478000", "115404.482000", "115404.485000", "115404.488000", "115404.492000", "115404.495000", "115424.429000", "115424.433000", "115424.436000", "115424.440000", "115424.443000", "115424.446000", "115424.450000", "115424.453000", "115424.456000", "115424.460000", "115424.463000", "115424.467000", "115424.470000", "115424.473000", "115424.477000", "115424.480000", "115424.483000", "115424.487000", "115424.490000", "115424.494000", "115444.429000", "115444.433000", "115444.436000", "115444.440000", "115444.443000", "115444.446000", "115444.450000", "115444.464000", "115444.468000", "115444.471000", "115444.474000", "115444.478000", "115444.481000", "115444.484000", "115444.488000", "115444.491000", "115444.495000", "115444.498000", "115444.501000", "115444.505000", "115524.429000", "115524.433000", "115524.436000", "115524.440000", "115524.443000", "115524.446000", "115524.450000", "115524.453000", "115524.457000", "115524.460000", "115524.463000", "115524.467000", "115524.470000", "115524.473000", "115524.477000", "115524.480000", "115524.484000", "115524.487000", "115524.490000", "115524.494000", "115524.497000", "115524.500000", "115524.504000", "115524.507000", "115524.511000", "115524.514000", "115524.517000", "115524.521000", "115604.429000", "115604.433000", "115604.436000", "115604.440000", "115604.443000", "115604.447000", "115604.450000", "115604.453000", "115604.457000", "115604.460000", "115604.463000", "115604.467000", "115604.470000", "115604.474000", "115604.477000", "115604.480000", "115604.484000", "115604.487000", "115604.490000", "115604.494000", "115604.497000", "115604.501000", "115604.504000", "115604.507000", "115604.511000", "115604.514000", "115604.517000", "115644.429000", "115644.434000", "115644.438000", "115644.442000", "115644.446000", "115644.450000", "115644.454000", "115644.458000", "115644.462000", "115644.466000", "115644.470000", "115644.474000", "115644.478000", "115644.482000", "115644.486000", "115644.490000", "115644.493000", "115644.497000", "115644.501000", "115644.505000", "115644.509000", "115644.513000", "115644.517000", "115644.522000", "115644.527000", "115644.532000", "115717.375000", "115717.378000", "115717.382000", "115717.385000", "115717.400000", "115717.404000", "115717.407000", "115717.410000", "115717.414000", "115717.417000", "115717.421000", "115717.424000", "115717.428000", "115717.431000", "115717.434000", "115717.438000", "115717.444000", "115717.448000", "115717.451000", "115717.454000", "115717.458000", "115717.461000", "115717.464000"],
      "InstanceCreationTime": ["115324.469000", "115324.474000", "115324.478000", "115324.482000", "115324.485000", "115324.488000", "115324.509000", "115324.513000", "115324.517000", "115324.520000", "115324.523000", "115324.527000", "115324.530000", "115324.534000", "115324.537000", "115324.540000", "115324.544000", "115324.547000", "115324.550000", "115324.554000", "115324.557000", "115324.561000", "115344.429000", "115344.433000", "115344.436000", "115344.440000", "115344.443000", "115344.447000", "115344.450000", "115344.453000", "115344.457000", "115344.460000", "115344.463000", "115344.467000", "115344.470000", "115344.474000", "115344.477000", "115344.480000", "115344.483000", "115344.487000", "115344.490000", "115344.494000", "115344.497000", "115404.430000", "115404.434000", "115404.437000", "115404.441000", "115404.444000", "115404.448000", "115404.451000", "115404.454000", "115404.458000", "115404.461000", "115404.465000", "115404.468000", "115404.471000", "115404.475000", "115404.478000", "115404.482000", "115404.485000", "115404.488000", "115404.492000", "115404.495000", "115424.429000", "115424.433000", "115424.436000", "115424.440000", "115424.443000", "115424.446000", "115424.450000", "115424.453000", "115424.456000", "115424.460000", "115424.463000", "115424.467000", "115424.470000", "115424.473000", "115424.477000", "115424.480000", "115424.483000", "115424.487000", "115424.490000", "115424.494000", "115444.429000", "115444.433000", "115444.436000", "115444.440000", "115444.443000", "115444.446000", "115444.450000", "115444.464000", "115444.468000", "115444.471000", "115444.474000", "115444.478000", "115444.481000", "115444.484000", "115444.488000", "115444.491000", "115444.495000", "115444.498000", "115444.501000", "115444.505000", "115524.429000", "115524.433000", "115524.436000", "115524.440000", "115524.443000", "115524.446000", "115524.450000", "115524.453000", "115524.457000", "115524.460000", "115524.463000", "115524.467000", "115524.470000", "115524.473000", "115524.477000", "115524.480000", "115524.484000", "115524.487000", "115524.490000", "115524.494000", "115524.497000", "115524.500000", "115524.504000", "115524.507000", "115524.511000", "115524.514000", "115524.517000", "115524.521000", "115604.429000", "115604.433000", "115604.436000", "115604.440000", "115604.443000", "115604.447000", "115604.450000", "115604.453000", "115604.457000", "115604.460000", "115604.463000", "115604.467000", "115604.470000", "115604.474000", "115604.477000", "115604.480000", "115604.484000", "115604.487000", "115604.490000", "115604.494000", "115604.497000", "115604.501000", "115604.504000", "115604.507000", "115604.511000", "115604.514000", "115604.517000", "115644.429000", "115644.434000", "115644.438000", "115644.442000", "115644.446000", "115644.450000", "115644.454000", "115644.458000", "115644.462000", "115644.466000", "115644.470000", "115644.474000", "115644.478000", "115644.482000", "115644.486000", "115644.490000", "115644.493000", "115644.497000", "115644.501000", "115644.505000", "115644.509000", "115644.513000", "115644.517000", "115644.522000", "115644.527000", "115644.532000", "115717.375000", "115717.378000", "115717.382000", "115717.385000", "115717.400000", "115717.404000", "115717.407000", "115717.410000", "115717.414000", "115717.417000", "115717.421000", "115717.424000", "115717.428000", "115717.431000", "115717.434000", "115717.438000", "115717.444000", "115717.448000", "115717.451000", "115717.454000", "115717.458000", "115717.461000", "115717.464000"],
      "InstanceNumber": [1, 2, 3, 4, 5, 6, 7, 8, 9, 10, 11, 12, 13, 14, 15, 16, 17, 18, 19, 20, 21, 22, 23, 24, 25, 26, 27, 28, 29, 30, 31, 32, 33, 34, 35, 36, 37, 38, 39, 40, 41, 42, 43, 44, 45, 46, 47, 48, 49, 50, 51, 52, 53, 54, 55, 56, 57, 58, 59, 60, 61, 62, 63, 64, 65, 66, 67, 68, 69, 70, 71, 72, 73, 74, 75, 76, 77, 78, 79, 80, 81, 82, 83, 84, 85, 86, 87, 88, 89, 90, 91, 92, 93, 94, 95, 96, 97, 98, 99, 100, 101, 102, 103, 104, 105, 106, 107, 108, 109, 110, 111, 112, 113, 114, 115, 116, 117, 118, 119, 120, 121, 122, 123, 124, 125, 126, 127, 128, 129, 130, 131, 132, 133, 134, 135, 136, 137, 138, 139, 140, 141, 142, 143, 144, 145, 146, 147, 148, 149, 150, 151, 152, 153, 154, 155, 156, 157, 158, 159, 160, 161, 162, 163, 164, 165, 166, 167, 168, 169, 170, 171, 172, 173, 174, 175, 176, 177, 178, 179, 180, 181, 182, 183, 184, 185, 186, 187, 188, 189, 190, 191, 192, 193, 194, 195, 196, 197, 198, 199, 200, 201, 202, 203, 204, 205, 206, 207],
      "LargestImagePixelValue": [45756, 44588, 43531, 42147, 42614, 42965, 43870, 42413, 42114, 42178, 43047, 42581, 41328, 40986, 42978, 42331, 43047, 42223, 42583, 43354, 42725, 43740, 41923, 41464, 41727, 42426, 42288, 42315, 43278, 42622, 41614, 41765, 43016, 43194, 41844, 42149, 42857, 42379, 43234, 43059, 44990, 41252, 41726, 42953, 43587, 42648, 42890, 42931, 43528, 43739, 43162, 42149, 42878, 43030, 43672, 42832, 42992, 42528, 42562, 42000, 41435, 40931, 41497, 42318, 42244, 41780, 40295, 40672, 41379, 41302, 41151, 39775, 43767, 42265, 41935, 42782, 42512, 43710, 43462, 42359, 42350, 42695, 42941, 42043, 41209, 41206, 40336, 41173, 42011, 42430, 41805, 40739, 40520, 41555, 42484, 42823, 39901, 40017, 40405, 40609, 41327, 42753, 42845, 41953, 41459, 43487, 42987, 42958, 42427, 41033, 41841, 40806, 39529, 41309, 40066, 40474, 40932, 40644, 41413, 40789, 42533, 39668, 44201, 45453, 43378, 41078, 43602, 45509, 43402, 42379, 44710, 42933, 44065, 43216, 42095, 40207, 40120, 40243, 41634, 41734, 41510, 42048, 40842, 41315, 43387, 43764, 45247, 45157, 44904, 45507, 45472, 45506, 44891, 42252, 42774, 41002, 43214, 44661, 43658, 43470, 43284, 42472, 42478, 42296, 42108, 46095, 47052, 48984, 48500, 48345, 48784, 48125, 46121, 45260, 47183, 47733, 47244, 48162, 47048, 46113, 46154, 45374, 46475, 45203, 47694, 46919, 46041, 46017, 46224, 44320, 46888, 46082, 45139, 43975, 43988, 44414, 43365, 42478, 44931, 43022, 42710, 45277, 45109, 45563, 44627, 43819, 43673],
      "WindowCenter": [10550.0, 10525.0, 10537.0, 10513.0, 10504.0, 10497.0, 10513.0, 10498.0, 10490.0, 10482.0, 10501.0, 10513.0, 10496.0, 10475.0, 10480.0, 10487.0, 10509.0, 10491.0, 10481.0, 10467.0, 10471.0, 10500.0, 10494.0, 10497.0, 10495.0, 10475.0, 10456.0, 10445.0, 10469.0, 10478.0, 10476.0, 10480.0, 10476.0, 10481.0, 10462.0, 10461.0, 10464.0, 10477.0, 10492.0, 10490.0, 10511.0, 10490.0, 10496.0, 10497.0, 10487.0, 10446.0, 10440.0, 10440.0, 10460.0, 10494.0, 10495.0, 10476.0, 10471.0, 10477.0, 10477.0, 10464.0, 10473.0, 10475.0, 10478.0, 10474.0, 10459.0, 10445.0, 10450.0, 10471.0, 10498.0, 10494.0, 10482.0, 10480.0, 10487.0, 10482.0, 10462.0, 10459.0, 10535.0, 10535.0, 10517.0, 10500.0, 10469.0, 10457.0, 10448.0, 10438.0, 10455.0, 10477.0, 10500.0, 10488.0, 10469.0, 10465.0, 10437.0, 10448.0, 10469.0, 10473.0, 10461.0, 10458.0, 10468.0, 10482.0, 10502.0, 10499.0, 10457.0, 10448.0, 10452.0, 10469.0, 10472.0, 10452.0, 10461.0, 10480.0, 10481.0, 10482.0, 10451.0, 10431.0, 10421.0, 10422.0, 10448.0, 10464.0, 10445.0, 10443.0, 10424.0, 10424.0, 10444.0, 10438.0, 10442.0, 10438.0, 10470.0, 10446.0, 10517.0, 10539.0, 10515.0, 10489.0, 10487.0, 10474.0, 10431.0, 10429.0, 10477.0, 10482.0, 10502.0, 10482.0, 10460.0, 10433.0, 10441.0, 10466.0, 10460.0, 10437.0, 10421.0, 10427.0, 10443.0, 10481.0, 10517.0, 10513.0, 10503.0, 10482.0, 10462.0, 10457.0, 10458.0, 10486.0, 10508.0, 10480.0, 10454.0, 10437.0, 10439.0, 10474.0, 10487.0, 10476.0, 10447.0, 10438.0, 10437.0, 10440.0, 10456.0, 10489.0, 10506.0, 10522.0, 10527.0, 10521.0, 10499.0, 10473.0, 10456.0, 10472.0, 10505.0, 10524.0, 10508.0, 10499.0, 10479.0, 10483.0, 10492.0, 10488.0, 10499.0, 10479.0, 10479.0, 10463.0, 10490.0, 10523.0, 10542.0, 10523.0, 10517.0, 10485.0, 10447.0, 10422.0, 10440.0, 10481.0, 10471.0, 10455.0, 10470.0, 10447.0, 10454.0, 10513.0, 10526.0, 10496.0, 10457.0, 10441.0, 10446.0],
      "WindowWidth": [22422.0, 22352.0, 22373.0, 22316.0, 22289.0, 22266.0, 22302.0, 22271.0, 22254.0, 22235.0, 22283.0, 22310.0, 22274.0, 22226.0, 22230.0, 22249.0, 22295.0, 22257.0, 22229.0, 22195.0, 22202.0, 22267.0, 22266.0, 22270.0, 22267.0, 22215.0, 22170.0, 22145.0, 22200.0, 22229.0, 22229.0, 22231.0, 22218.0, 22230.0, 22203.0, 22187.0, 22192.0, 22228.0, 22259.0, 22251.0, 22291.0, 22260.0, 22267.0, 22265.0, 22248.0, 22152.0, 22134.0, 22136.0, 22182.0, 22260.0, 22264.0, 22222.0, 22206.0, 22227.0, 22216.0, 22186.0, 22207.0, 22214.0, 22223.0, 22221.0, 22186.0, 22155.0, 22166.0, 22212.0, 22277.0, 22266.0, 22247.0, 22239.0, 22249.0, 22242.0, 22197.0, 22201.0, 22355.0, 22366.0, 22322.0, 22275.0, 22207.0, 22169.0, 22153.0, 22129.0, 22170.0, 22227.0, 22277.0, 22251.0, 22214.0, 22201.0, 22140.0, 22166.0, 22214.0, 22218.0, 22197.0, 22191.0, 22216.0, 22247.0, 22290.0, 22280.0, 22197.0, 22179.0, 22182.0, 22224.0, 22225.0, 22169.0, 22185.0, 22236.0, 22245.0, 22232.0, 22162.0, 22117.0, 22096.0, 22103.0, 22164.0, 22206.0, 22165.0, 22150.0, 22113.0, 22113.0, 22160.0, 22147.0, 22154.0, 22149.0, 22225.0, 22174.0, 22318.0, 22371.0, 22320.0, 22266.0, 22248.0, 22224.0, 22121.0, 22119.0, 22231.0, 22242.0, 22283.0, 22240.0, 22191.0, 22135.0, 22156.0, 22212.0, 22190.0, 22131.0, 22096.0, 22114.0, 22160.0, 22245.0, 22324.0, 22311.0, 22293.0, 22235.0, 22191.0, 22178.0, 22181.0, 22250.0, 22309.0, 22249.0, 22180.0, 22145.0, 22135.0, 22213.0, 22252.0, 22224.0, 22158.0, 22137.0, 22138.0, 22145.0, 22185.0, 22244.0, 22276.0, 22312.0, 22326.0, 22308.0, 22257.0, 22199.0, 22169.0, 22210.0, 22275.0, 22319.0, 22278.0, 22252.0, 22212.0, 22228.0, 22250.0, 22242.0, 22263.0, 22222.0, 22233.0, 22174.0, 22247.0, 22324.0, 22370.0, 22330.0, 22300.0, 22230.0, 22148.0, 22090.0, 22135.0, 22232.0, 22209.0, 22179.0, 22202.0, 22157.0, 22175.0, 22307.0, 22343.0, 22257.0, 22169.0, 22134.0, 22150.0]
    },
    "slices": {}
  }
}