{
  "AcquisitionMatrixPE": 104,
  "AcquisitionNumber": 1,
  "AcquisitionTime": "11:45:21.927500",
  "B0FieldSource": "sub-01_ses-009_task-gamepad_run-01_part-mag_bold.nii.gz",
  "BandwidthPerPixelPhaseEncode": 17.17,
  "BaseResolution": 104,
  "BodyPartExamined": "BRAIN",
  "CoilCombinationMethod": "Sum of Squares",
  "ConsistencyInfo": "N4_VE11C_LATEST_20160120",
  "ConversionSoftware": "dcm2niix",
  "ConversionSoftwareVersion": "v1.0.20211006",
  "DerivedVendorReportedEchoSpacing": 0.000560011,
  "DeviceSerialNumber": "167006",
  "DwellTime": 2.1e-06,
  "EchoTime": 0.037,
  "EchoTrainLength": 104,
  "EffectiveEchoSpacing": 0.000560011,
  "FlipAngle": 52,
  "HeudiconvVersion": "0.10.0",
  "ImageComments": "Unaliased MB4/PE3/LB",
  "ImageOrientationPatientDICOM": [0.995848, 0.0625422, 0.0661513, -0.0342538, 0.930675, -0.364239],
  "ImageOrientationText": "Tra>Cor(-21.2)>Sag(4.8)",
  "ImageType": [
    "ORIGINAL",
    "PRIMARY",
    "M",
    "MB",
    "ND",
    "MOSAIC"
],
  "ImagingFrequency": 123.259,
  "InPlanePhaseEncodingDirectionDICOM": "COL",
  "InstitutionAddress": "Chemin Queen-Mary 4565,Montreal,District,CA,H3W 1W5",
  "InstitutionName": "IUGM",
  "InstitutionalDepartmentName": "Department",
  "MRAcquisitionType": "2D",
  "MagneticFieldStrength": 3,
  "Manufacturer": "Siemens",
  "ManufacturersModelName": "Prisma_fit",
  "MatrixCoilMode": "SENSE",
  "Modality": "MR",
  "MultibandAccelerationFactor": 4,
  "PartialFourier": 1,
  "PatientPosition": "HFS",
  "PercentPhaseFOV": 100,
  "PercentSampling": 100,
  "PhaseEncodingDirection": "j",
  "PhaseEncodingSteps": 104,
  "PhaseResolution": 1,
  "PixelBandwidth": 2290,
  "ProcedureStepDescription": "games^gamepad",
  "ProtocolName": "func_task-gamepad_run-1",
  "PulseSequenceDetails": "%CustomerSeq%\\cmrr_mbep2d_bold",
  "ReceiveCoilActiveElements": "HC1-7;NC1,2",
  "ReceiveCoilName": "HeadNeck_64",
  "ReconMatrixPE": 104,
  "RepetitionTime": 1.49,
  "SAR": 0.0539671,
  "ScanOptions": "FS",
  "ScanningSequence": "EP",
  "SequenceName": "epfid2d1_104",
  "SequenceVariant": "SK\\SS",
  "SeriesDescription": "func_task-gamepad_run-1",
  "SeriesNumber": 10,
  "ShimSetting": [636, -7192, -8836, 609, 90, 18, -31, -4],
  "SliceThickness": 2,
  "SliceTiming": [0, 0.785, 0.0975, 0.8825, 0.1975, 0.98, 0.295, 1.0775, 0.3925, 1.175, 0.49, 1.275, 0.5875, 1.3725, 0.685, 0, 0.785, 0.0975, 0.8825, 0.1975, 0.98, 0.295, 1.0775, 0.3925, 1.175, 0.49, 1.275, 0.5875, 1.3725, 0.685, 0, 0.785, 0.0975, 0.8825, 0.1975, 0.98, 0.295, 1.0775, 0.3925, 1.175, 0.49, 1.275, 0.5875, 1.3725, 0.685, 0, 0.785, 0.0975, 0.8825, 0.1975, 0.98, 0.295, 1.0775, 0.3925, 1.175, 0.49, 1.275, 0.5875, 1.3725, 0.685],
  "SoftwareVersions": "syngo MR E11",
  "SpacingBetweenSlices": 2,
  "StationName": "MRC35049",
  "TaskName": "gamepad",
  "TotalReadoutTime": 0.0576811,
  "TxRefAmp": 289.443,
  "WipMemBlock": "62dc2320-5a9f-4e7b-b815-cb47294948de||Sequence: R016 ve11c/master r/e634e98; Dec 19 2017 11:00:25 by eja",
  "dcmmeta_affine": [
    [-1.9916952848434448, -0.06850753724575043, 0.16869138181209564, 106.18244934082031],
    [-0.1250843107700348, 1.8613505363464355, -0.7209216356277466, -52.05488204956055],
    [0.13230262696743011, 0.7284784317016602, 1.8579061031341553, -72.04032135009766],
    [0.0, 0.0, 0.0, 1.0]
],
  "dcmmeta_reorient_transform": [
    [0.0, -1.0, 0.0, 103.0],
    [1.0, 0.0, 0.0, 0.0],
    [0.0, 0.0, 1.0, 0.0],
    [0.0, 0.0, 0.0, 1.0]
],
  "dcmmeta_shape": [104, 104, 60, 207],
  "dcmmeta_slice_dim": 2,
  "dcmmeta_version": 0.6,
  "global": {
    "const": {
      "AcquisitionMatrix": [104, 0, 0, 104],
      "AngioFlag": "N",
      "BitsAllocated": 16,
      "BitsStored": 16,
      "BodyPartExamined": "BRAIN",
      "Columns": 832,
      "EchoNumbers": 1,
      "EchoTime": 37.0,
      "EchoTrainLength": 104,
      "FlipAngle": 52.0,
      "HighBit": 15,
      "ImageOrientationPatient": [0.99584762051523, 0.06254215217556, 0.06615131076111, -0.034253768851, 0.93067528183916, -0.3642392058704],
      "ImagePositionPatient": [-799.16649991461, -862.72651874771, 220.00094239061],
      "ImageType": [
        "ORIGINAL",
        "PRIMARY",
        "M",
        "MB",
        "ND",
        "MOSAIC"
],
      "ImagedNucleus": "1H",
      "ImagingFrequency": 123.258868,
      "InPlanePhaseEncodingDirection": "COL",
      "MRAcquisitionType": "2D",
      "MagneticFieldStrength": 3.0,
      "Manufacturer": "SIEMENS",
      "ManufacturerModelName": "Prisma_fit",
      "Modality": "MR",
      "NumberOfAverages": 1.0,
      "NumberOfPhaseEncodingSteps": 104,
      "PercentPhaseFieldOfView": 100.0,
      "PercentSampling": 100.0,
      "PerformedProcedureStepStartTime": "113628.679000",
      "PhotometricInterpretation": "MONOCHROME2",
      "PixelBandwidth": 2290.0,
      "PixelRepresentation": 0,
      "PixelSpacing": [2.0, 2.0],
      "ProtocolName": "func_task-gamepad_run-1",
      "RepetitionTime": 1490.0,
      "Rows": 832,
      "SAR": 0.0539671435329,
      "SamplesPerPixel": 1,
      "ScanOptions": "FS",
      "ScanningSequence": "EP",
      "SequenceName": "epfid2d1_104",
      "SequenceVariant": [
        "SK",
        "SS"
],
      "SeriesDescription": "func_task-gamepad_run-1",
      "SeriesNumber": 10,
      "SeriesTime": "114642.745000",
      "SliceLocation": -39.202300413665,
      "SliceThickness": 2.0,
      "SmallestImagePixelValue": 0,
      "SoftwareVersions": "syngo MR E11",
      "SpacingBetweenSlices": 2.0000000124042,
      "SpecificCharacterSet": "ISO_IR 100",
      "StudyID": "1",
      "StudyTime": "113628.606000",
      "TransmitCoilName": "Body",
      "VariableFlipAngleFlag": "N",
      "WindowCenterWidthExplanation": "Algo1",
      "dBdt": 0.0},
    "slices": {}
  },
  "time": {
    "samples": {
      "AcquisitionNumber": [1, 2, 3, 4, 5, 6, 7, 8, 9, 10, 11, 12, 13, 14, 15, 16, 17, 18, 19, 20, 21, 22, 23, 24, 25, 26, 27, 28, 29, 30, 31, 32, 33, 34, 35, 36, 37, 38, 39, 40, 41, 42, 43, 44, 45, 46, 47, 48, 49, 50, 51, 52, 53, 54, 55, 56, 57, 58, 59, 60, 61, 62, 63, 64, 65, 66, 67, 68, 69, 70, 71, 72, 73, 74, 75, 76, 77, 78, 79, 80, 81, 82, 83, 84, 85, 86, 87, 88, 89, 90, 91, 92, 93, 94, 95, 96, 97, 98, 99, 100, 101, 102, 103, 104, 105, 106, 107, 108, 109, 110, 111, 112, 113, 114, 115, 116, 117, 118, 119, 120, 121, 122, 123, 124, 125, 126, 127, 128, 129, 130, 131, 132, 133, 134, 135, 136, 137, 138, 139, 140, 141, 142, 143, 144, 145, 146, 147, 148, 149, 150, 151, 152, 153, 154, 155, 156, 157, 158, 159, 160, 161, 162, 163, 164, 165, 166, 167, 168, 169, 170, 171, 172, 173, 174, 175, 176, 177, 178, 179, 180, 181, 182, 183, 184, 185, 186, 187, 188, 189, 190, 191, 192, 193, 194, 195, 196, 197, 198, 199, 200, 201, 202, 203, 204, 205, 206, 207],
      "AcquisitionTime": ["114521.927500", "114523.417500", "114524.907500", "114526.397500", "114527.887500", "114529.377500", "114530.867500", "114532.357500", "114533.847500", "114535.337500", "114536.827500", "114538.317500", "114539.807500", "114541.297500", "114542.787500", "114544.277500", "114545.767500", "114547.257500", "114548.747500", "114550.237500", "114551.727500", "114553.217500", "114554.707500", "114556.197500", "114557.687500", "114559.177500", "114600.667500", "114602.157500", "114603.647500", "114605.137500", "114606.627500", "114608.117500", "114609.607500", "114611.097500", "114612.587500", "114614.077500", "114615.567500", "114617.057500", "114618.547500", "114620.037500", "114621.527500", "114623.017500", "114624.507500", "114625.997500", "114627.487500", "114628.977500", "114630.467500", "114631.957500", "114633.447500", "114634.937500", "114636.427500", "114637.917500", "114639.407500", "114640.897500", "114642.387500", "114643.877500", "114645.367500", "114646.857500", "114648.347500", "114649.837500", "114651.327500", "114652.817500", "114654.307500", "114655.797500", "114657.287500", "114658.777500", "114700.267500", "114701.757500", "114703.247500", "114704.737500", "114706.227500", "114707.717500", "114709.207500", "114710.697500", "114712.187500", "114713.677500", "114715.167500", "114716.657500", "114718.147500", "114719.637500", "114721.127500", "114722.617500", "114724.107500", "114725.597500", "114727.087500", "114728.577500", "114730.067500", "114731.557500", "114733.047500", "114734.537500", "114736.027500", "114737.517500", "114739.007500", "114740.497500", "114741.987500", "114743.477500", "114744.967500", "114746.457500", "114747.947500", "114749.437500", "114750.927500", "114752.417500", "114753.907500", "114755.397500", "114756.887500", "114758.377500", "114759.867500", "114801.357500", "114802.847500", "114804.337500", "114805.827500", "114807.317500", "114808.807500", "114810.297500", "114811.787500", "114813.277500", "114814.767500", "114816.257500", "114817.747500", "114819.237500", "114820.727500", "114822.217500", "114823.707500", "114825.197500", "114826.687500", "114828.177500", "114829.667500", "114831.157500", "114832.647500", "114834.137500", "114835.627500", "114837.117500", "114838.607500", "114840.097500", "114841.587500", "114843.077500", "114844.567500", "114846.057500", "114847.547500", "114849.037500", "114850.527500", "114852.017500", "114853.507500", "114854.997500", "114856.487500", "114857.977500", "114859.467500", "114900.957500", "114902.447500", "114903.937500", "114905.427500", "114906.917500", "114908.407500", "114909.897500", "114911.387500", "114912.877500", "114914.367500", "114915.857500", "114917.347500", "114918.837500", "114920.327500", "114921.817500", "114923.307500", "114924.797500", "114926.287500", "114927.777500", "114929.267500", "114930.757500", "114932.247500", "114933.737500", "114935.227500", "114936.717500", "114938.207500", "114939.697500", "114941.187500", "114942.677500", "114944.167500", "114945.657500", "114947.147500", "114948.637500", "114950.127500", "114951.617500", "114953.107500", "114954.597500", "114956.087500", "114957.577500", "114959.067500", "115000.557500", "115002.047500", "115003.537500", "115005.027500", "115006.517500", "115008.007500", "115009.497500", "115010.987500", "115012.477500", "115013.967500", "115015.457500", "115016.947500", "115018.437500", "115019.927500", "115021.417500", "115022.907500", "115024.397500", "115025.887500", "115027.377500", "115028.867500"],
      "ContentTime": ["114642.748000", "114642.752000", "114642.755000", "114642.759000", "114642.762000", "114642.765000", "114642.781000", "114642.796000", "114642.799000", "114642.803000", "114642.806000", "114642.809000", "114642.813000", "114642.816000", "114642.819000", "114642.823000", "114642.826000", "114642.829000", "114642.833000", "114642.836000", "114642.839000", "114642.843000", "114642.846000", "114642.849000", "114642.853000", "114702.707000", "114702.711000", "114702.714000", "114702.718000", "114702.721000", "114702.724000", "114702.727000", "114702.731000", "114702.734000", "114702.737000", "114702.741000", "114702.744000", "114702.747000", "114702.751000", "114702.754000", "114702.757000", "114702.761000", "114702.764000", "114702.771000", "114702.774000", "114722.708000", "114722.712000", "114722.715000", "114722.718000", "114722.722000", "114722.725000", "114722.742000", "114722.745000", "114722.748000", "114722.752000", "114722.755000", "114722.767000", "114722.770000", "114722.797000", "114722.800000", "114722.804000", "114722.807000", "114722.810000", "114722.814000", "114722.817000", "114722.820000", "114742.708000", "114742.712000", "114742.715000", "114742.719000", "114742.722000", "114742.725000", "114742.729000", "114742.732000", "114742.736000", "114742.739000", "114742.742000", "114742.746000", "114742.749000", "114742.752000", "114742.756000", "114742.759000", "114742.763000", "114742.766000", "114742.770000", "114742.773000", "114802.708000", "114802.712000", "114802.715000", "114802.719000", "114802.722000", "114802.725000", "114802.729000", "114802.732000", "114802.735000", "114802.739000", "114802.742000", "114802.745000", "114802.749000", "114802.752000", "114802.755000", "114802.759000", "114802.762000", "114802.765000", "114802.769000", "114802.772000", "114842.708000", "114842.712000", "114842.715000", "114842.719000", "114842.722000", "114842.725000", "114842.729000", "114842.732000", "114842.736000", "114842.739000", "114842.743000", "114842.746000", "114842.749000", "114842.753000", "114842.756000", "114842.760000", "114842.763000", "114842.767000", "114842.770000", "114842.773000", "114842.777000", "114842.780000", "114842.784000", "114842.787000", "114842.791000", "114842.794000", "114842.797000", "114842.801000", "114922.707000", "114922.711000", "114922.714000", "114922.718000", "114922.727000", "114922.731000", "114922.734000", "114922.738000", "114922.741000", "114922.745000", "114922.748000", "114922.751000", "114922.755000", "114922.758000", "114922.762000", "114922.765000", "114922.769000", "114922.772000", "114922.775000", "114922.779000", "114922.782000", "114922.786000", "114922.789000", "114922.793000", "114922.796000", "114922.799000", "115002.708000", "115002.712000", "115002.715000", "115002.719000", "115002.722000", "115002.726000", "115002.729000", "115002.733000", "115002.736000", "115002.739000", "115002.743000", "115002.746000", "115002.750000", "115002.753000", "115002.757000", "115002.760000", "115002.764000", "115002.767000", "115002.770000", "115002.774000", "115002.777000", "115002.780000", "115002.784000", "115002.787000", "115002.791000", "115002.794000", "115002.797000", "115031.369000", "115031.373000", "115031.376000", "115031.380000", "115031.383000", "115031.387000", "115031.390000", "115031.394000", "115031.397000", "115031.400000", "115031.404000", "115031.407000", "115031.410000", "115031.414000", "115031.417000", "115031.421000", "115031.424000", "115031.427000", "115031.431000", "115031.434000"],
      "InstanceCreationTime": ["114642.748000", "114642.752000", "114642.755000", "114642.759000", "114642.762000", "114642.765000", "114642.781000", "114642.796000", "114642.799000", "114642.803000", "114642.806000", "114642.809000", "114642.813000", "114642.816000", "114642.819000", "114642.823000", "114642.826000", "114642.829000", "114642.833000", "114642.836000", "114642.839000", "114642.843000", "114642.846000", "114642.849000", "114642.853000", "114702.707000", "114702.711000", "114702.714000", "114702.718000", "114702.721000", "114702.724000", "114702.727000", "114702.731000", "114702.734000", "114702.737000", "114702.741000", "114702.744000", "114702.747000", "114702.751000", "114702.754000", "114702.757000", "114702.761000", "114702.764000", "114702.771000", "114702.774000", "114722.708000", "114722.712000", "114722.715000", "114722.718000", "114722.722000", "114722.725000", "114722.742000", "114722.745000", "114722.748000", "114722.752000", "114722.755000", "114722.767000", "114722.770000", "114722.797000", "114722.800000", "114722.804000", "114722.807000", "114722.810000", "114722.814000", "114722.817000", "114722.820000", "114742.708000", "114742.712000", "114742.715000", "114742.719000", "114742.722000", "114742.725000", "114742.729000", "114742.732000", "114742.736000", "114742.739000", "114742.742000", "114742.746000", "114742.749000", "114742.752000", "114742.756000", "114742.759000", "114742.763000", "114742.766000", "114742.770000", "114742.773000", "114802.708000", "114802.712000", "114802.715000", "114802.719000", "114802.722000", "114802.725000", "114802.729000", "114802.732000", "114802.735000", "114802.739000", "114802.742000", "114802.745000", "114802.749000", "114802.752000", "114802.755000", "114802.759000", "114802.762000", "114802.765000", "114802.769000", "114802.772000", "114842.708000", "114842.712000", "114842.715000", "114842.719000", "114842.722000", "114842.725000", "114842.729000", "114842.732000", "114842.736000", "114842.739000", "114842.743000", "114842.746000", "114842.749000", "114842.753000", "114842.756000", "114842.760000", "114842.763000", "114842.767000", "114842.770000", "114842.773000", "114842.777000", "114842.780000", "114842.784000", "114842.787000", "114842.791000", "114842.794000", "114842.797000", "114842.801000", "114922.707000", "114922.711000", "114922.714000", "114922.718000", "114922.727000", "114922.731000", "114922.734000", "114922.738000", "114922.741000", "114922.745000", "114922.748000", "114922.751000", "114922.755000", "114922.758000", "114922.762000", "114922.765000", "114922.769000", "114922.772000", "114922.775000", "114922.779000", "114922.782000", "114922.786000", "114922.789000", "114922.793000", "114922.796000", "114922.799000", "115002.708000", "115002.712000", "115002.715000", "115002.719000", "115002.722000", "115002.726000", "115002.729000", "115002.733000", "115002.736000", "115002.739000", "115002.743000", "115002.746000", "115002.750000", "115002.753000", "115002.757000", "115002.760000", "115002.764000", "115002.767000", "115002.770000", "115002.774000", "115002.777000", "115002.780000", "115002.784000", "115002.787000", "115002.791000", "115002.794000", "115002.797000", "115031.369000", "115031.373000", "115031.376000", "115031.380000", "115031.383000", "115031.387000", "115031.390000", "115031.394000", "115031.397000", "115031.400000", "115031.404000", "115031.407000", "115031.410000", "115031.414000", "115031.417000", "115031.421000", "115031.424000", "115031.427000", "115031.431000", "115031.434000"],
      "InstanceNumber": [1, 2, 3, 4, 5, 6, 7, 8, 9, 10, 11, 12, 13, 14, 15, 16, 17, 18, 19, 20, 21, 22, 23, 24, 25, 26, 27, 28, 29, 30, 31, 32, 33, 34, 35, 36, 37, 38, 39, 40, 41, 42, 43, 44, 45, 46, 47, 48, 49, 50, 51, 52, 53, 54, 55, 56, 57, 58, 59, 60, 61, 62, 63, 64, 65, 66, 67, 68, 69, 70, 71, 72, 73, 74, 75, 76, 77, 78, 79, 80, 81, 82, 83, 84, 85, 86, 87, 88, 89, 90, 91, 92, 93, 94, 95, 96, 97, 98, 99, 100, 101, 102, 103, 104, 105, 106, 107, 108, 109, 110, 111, 112, 113, 114, 115, 116, 117, 118, 119, 120, 121, 122, 123, 124, 125, 126, 127, 128, 129, 130, 131, 132, 133, 134, 135, 136, 137, 138, 139, 140, 141, 142, 143, 144, 145, 146, 147, 148, 149, 150, 151, 152, 153, 154, 155, 156, 157, 158, 159, 160, 161, 162, 163, 164, 165, 166, 167, 168, 169, 170, 171, 172, 173, 174, 175, 176, 177, 178, 179, 180, 181, 182, 183, 184, 185, 186, 187, 188, 189, 190, 191, 192, 193, 194, 195, 196, 197, 198, 199, 200, 201, 202, 203, 204, 205, 206, 207],
      "LargestImagePixelValue": [42088, 41009, 42168, 42389, 41429, 41255, 40804, 42588, 41530, 41051, 40893, 42369, 41991, 41301, 41153, 41542, 41966, 41700, 41169, 41587, 41340, 40606, 41129, 41782, 41333, 40687, 41489, 41807, 41180, 41163, 40766, 41895, 42190, 41653, 41786, 42375, 42003, 41467, 41749, 42400, 41553, 42012, 42494, 42507, 42168, 42034, 41654, 41732, 41133, 41600, 42632, 41895, 41926, 42137, 42007, 41735, 41253, 41480, 41427, 41220, 41437, 40946, 42029, 41462, 40615, 41960, 41877, 41804, 41212, 42159, 41735, 41341, 41851, 41869, 41560, 41722, 42665, 42685, 41771, 41628, 42676, 40919, 41460, 42142, 41935, 41699, 42383, 42597, 41970, 43456, 44087, 45394, 44777, 44327, 45204, 44855, 44520, 42415, 44335, 44380, 44102, 44116, 44476, 44170, 44014, 44086, 44167, 44398, 43909, 44904, 44682, 44973, 44196, 43663, 43709, 41632, 44796, 45179, 45215, 45726, 44897, 44858, 44720, 44181, 45237, 44756, 45070, 45121, 45087, 44130, 44502, 45073, 44953, 44946, 43560, 44479, 45003, 45573, 45825, 45527, 45032, 45918, 45534, 44832, 44131, 45962, 45041, 44447, 43516, 43921, 44006, 43770, 43332, 44603, 45243, 45034, 44942, 43681, 44418, 44465, 45263, 45048, 44479, 44395, 46032, 44819, 44783, 44835, 45304, 45812, 45646, 45062, 44765, 43657, 45369, 46789, 46741, 46067, 45819, 45920, 45944, 45086, 44627, 46436, 46113, 46980, 45623, 44714, 45674, 45889, 45157, 45664, 44533, 45184, 46085, 46585, 46192, 45317, 45422, 46289, 45925, 45660, 45816, 44124, 45723, 46695, 46448],
      "WindowCenter": [10578.0, 10531.0, 10526.0, 10515.0, 10521.0, 10530.0, 10517.0, 10531.0, 10512.0, 10499.0, 10488.0, 10512.0, 10508.0, 10494.0, 10484.0, 10483.0, 10504.0, 10508.0, 10487.0, 10472.0, 10462.0, 10469.0, 10475.0, 10479.0, 10472.0, 10478.0, 10492.0, 10486.0, 10466.0, 10469.0, 10495.0, 10515.0, 10505.0, 10483.0, 10485.0, 10470.0, 10468.0, 10471.0, 10485.0, 10526.0, 10527.0, 10521.0, 10499.0, 10493.0, 10478.0, 10460.0, 10461.0, 10480.0, 10500.0, 10509.0, 10495.0, 10470.0, 10469.0, 10475.0, 10493.0, 10489.0, 10482.0, 10472.0, 10479.0, 10492.0, 10500.0, 10488.0, 10487.0, 10477.0, 10456.0, 10466.0, 10490.0, 10536.0, 10535.0, 10517.0, 10477.0, 10460.0, 10477.0, 10489.0, 10481.0, 10469.0, 10472.0, 10472.0, 10458.0, 10451.0, 10477.0, 10483.0, 10483.0, 10479.0, 10459.0, 10442.0, 10476.0, 10521.0, 10501.0, 10483.0, 10459.0, 10452.0, 10444.0, 10456.0, 10481.0, 10493.0, 10485.0, 10450.0, 10459.0, 10470.0, 10476.0, 10485.0, 10492.0, 10480.0, 10489.0, 10488.0, 10513.0, 10522.0, 10503.0, 10496.0, 10495.0, 10507.0, 10496.0, 10491.0, 10501.0, 10489.0, 10530.0, 10522.0, 10506.0, 10498.0, 10476.0, 10485.0, 10519.0, 10528.0, 10518.0, 10499.0, 10496.0, 10492.0, 10519.0, 10521.0, 10528.0, 10527.0, 10520.0, 10500.0, 10493.0, 10511.0, 10531.0, 10531.0, 10511.0, 10490.0, 10496.0, 10517.0, 10522.0, 10504.0, 10495.0, 10524.0, 10524.0, 10525.0, 10535.0, 10550.0, 10571.0, 10568.0, 10520.0, 10507.0, 10500.0, 10505.0, 10498.0, 10504.0, 10527.0, 10555.0, 10555.0, 10527.0, 10503.0, 10494.0, 10522.0, 10538.0, 10528.0, 10517.0, 10503.0, 10507.0, 10521.0, 10511.0, 10513.0, 10518.0, 10533.0, 10545.0, 10523.0, 10500.0, 10491.0, 10505.0, 10534.0, 10532.0, 10517.0, 10532.0, 10523.0, 10503.0, 10481.0, 10469.0, 10499.0, 10536.0, 10519.0, 10511.0, 10484.0, 10482.0, 10506.0, 10529.0, 10511.0, 10503.0, 10493.0, 10504.0, 10518.0, 10527.0, 10515.0, 10494.0, 10507.0, 10527.0, 10533.0],
      "WindowWidth": [22513.0, 22388.0, 22357.0, 22326.0, 22343.0, 22361.0, 22334.0, 22359.0, 22319.0, 22292.0, 22263.0, 22315.0, 22310.0, 22277.0, 22251.0, 22255.0, 22300.0, 22308.0, 22261.0, 22221.0, 22200.0, 22225.0, 22234.0, 22240.0, 22226.0, 22245.0, 22274.0, 22255.0, 22208.0, 22217.0, 22285.0, 22325.0, 22296.0, 22246.0, 22247.0, 22215.0, 22208.0, 22219.0, 22252.0, 22342.0, 22348.0, 22335.0, 22278.0, 22263.0, 22232.0, 22191.0, 22197.0, 22241.0, 22293.0, 22313.0, 22272.0, 22213.0, 22212.0, 22229.0, 22274.0, 22266.0, 22248.0, 22223.0, 22247.0, 22276.0, 22293.0, 22265.0, 22257.0, 22234.0, 22187.0, 22208.0, 22267.0, 22378.0, 22374.0, 22333.0, 22236.0, 22190.0, 22231.0, 22264.0, 22241.0, 22212.0, 22221.0, 22220.0, 22189.0, 22173.0, 22228.0, 22255.0, 22248.0, 22235.0, 22188.0, 22147.0, 22228.0, 22334.0, 22288.0, 22234.0, 22173.0, 22154.0, 22139.0, 22168.0, 22221.0, 22249.0, 22233.0, 22171.0, 22174.0, 22203.0, 22218.0, 22240.0, 22255.0, 22227.0, 22257.0, 22247.0, 22307.0, 22327.0, 22282.0, 22263.0, 22262.0, 22307.0, 22265.0, 22254.0, 22276.0, 22258.0, 22338.0, 22320.0, 22281.0, 22256.0, 22210.0, 22232.0, 22318.0, 22341.0, 22315.0, 22266.0, 22264.0, 22253.0, 22320.0, 22329.0, 22340.0, 22336.0, 22322.0, 22272.0, 22267.0, 22298.0, 22340.0, 22345.0, 22290.0, 22243.0, 22258.0, 22308.0, 22323.0, 22284.0, 22260.0, 22323.0, 22329.0, 22332.0, 22358.0, 22394.0, 22447.0, 22451.0, 22327.0, 22288.0, 22271.0, 22283.0, 22266.0, 22287.0, 22338.0, 22404.0, 22402.0, 22331.0, 22279.0, 22262.0, 22317.0, 22362.0, 22336.0, 22308.0, 22272.0, 22283.0, 22317.0, 22298.0, 22302.0, 22321.0, 22345.0, 22374.0, 22316.0, 22267.0, 22245.0, 22283.0, 22351.0, 22346.0, 22306.0, 22333.0, 22317.0, 22269.0, 22221.0, 22197.0, 22266.0, 22365.0, 22322.0, 22293.0, 22236.0, 22232.0, 22282.0, 22336.0, 22298.0, 22280.0, 22255.0, 22279.0, 22316.0, 22333.0, 22310.0, 22263.0, 22283.0, 22331.0, 22346.0]
    },
    "slices": {}
  }
}