{
  "AcquisitionMatrixPE": 104,
  "AcquisitionNumber": 1,
  "AcquisitionTime": "13:59:22.335000",
  "BandwidthPerPixelPhaseEncode": 17.17,
  "BaseResolution": 104,
  "BodyPartExamined": "BRAIN",
  "CoilCombinationMethod": "Sum of Squares",
  "ConsistencyInfo": "N4_VE11C_LATEST_20160120",
  "ConversionSoftware": "dcm2niix",
  "ConversionSoftwareVersion": "v1.0.20211006",
  "DerivedVendorReportedEchoSpacing": 0.000560011,
  "DeviceSerialNumber": "167006",
  "DwellTime": 2.1e-06,
  "EchoTime": 0.037,
  "EchoTime1": 0.037,
  "EchoTime2": 0.001,
  "EchoTrainLength": 104,
  "EffectiveEchoSpacing": 0.000560011,
  "FlipAngle": 52,
  "HeudiconvVersion": "0.10.0",
  "ImageComments": "Unaliased MB4/PE3/LB",
  "ImageOrientationPatientDICOM": [0.998383, 0.000930106, 0.056842, 0.0125467, 0.971606, -0.236271],
  "ImageOrientationText": "Tra>Cor(-13.7)>Sag(3.2)",
  "ImageType": [
    "ORIGINAL",
    "PRIMARY",
    "P",
    "MB",
    "ND",
    "MOSAIC",
    "PHASE"
],
  "ImagingFrequency": 123.259,
  "InPlanePhaseEncodingDirectionDICOM": "COL",
  "InstitutionAddress": "Chemin Queen-Mary 4565,Montreal,District,CA,H3W 1W5",
  "InstitutionName": "IUGM",
  "InstitutionalDepartmentName": "Department",
  "MRAcquisitionType": "2D",
  "MagneticFieldStrength": 3,
  "Manufacturer": "Siemens",
  "ManufacturersModelName": "Prisma_fit",
  "MatrixCoilMode": "SENSE",
  "Modality": "MR",
  "MultibandAccelerationFactor": 4,
  "PartialFourier": 1,
  "PatientPosition": "HFS",
  "PercentPhaseFOV": 100,
  "PercentSampling": 100,
  "PhaseEncodingDirection": "j",
  "PhaseEncodingSteps": 104,
  "PhaseResolution": 1,
  "PixelBandwidth": 2290,
  "ProcedureStepDescription": "games^gamepad",
  "ProtocolName": "func_task-gamepad_run-1",
  "PulseSequenceDetails": "%CustomerSeq%\\cmrr_mbep2d_bold",
  "ReceiveCoilActiveElements": "HC1-7;NC1,2",
  "ReceiveCoilName": "HeadNeck_64",
  "ReconMatrixPE": 104,
  "RepetitionTime": 1.49,
  "SAR": 0.042063,
  "ScanOptions": "FS",
  "ScanningSequence": "EP",
  "SequenceName": "epfid2d1_104",
  "SequenceVariant": "SK\\SS",
  "SeriesDescription": "func_task-gamepad_run-1",
  "SeriesNumber": 11,
  "ShimSetting": [646, -7222, -8790, 686, 44, -28, 91, -15],
  "SliceThickness": 2,
  "SliceTiming": [0, 0.785, 0.1, 0.8825, 0.1975, 0.98, 0.295, 1.08, 0.3925, 1.1775, 0.49, 1.275, 0.59, 1.3725, 0.6875, 0, 0.785, 0.1, 0.8825, 0.1975, 0.98, 0.295, 1.08, 0.3925, 1.1775, 0.49, 1.275, 0.59, 1.3725, 0.6875, 0, 0.785, 0.1, 0.8825, 0.1975, 0.98, 0.295, 1.08, 0.3925, 1.1775, 0.49, 1.275, 0.59, 1.3725, 0.6875, 0, 0.785, 0.1, 0.8825, 0.1975, 0.98, 0.295, 1.08, 0.3925, 1.1775, 0.49, 1.275, 0.59, 1.3725, 0.6875],
  "SoftwareVersions": "syngo MR E11",
  "SpacingBetweenSlices": 2,
  "StationName": "MRC35049",
  "TaskName": "gamepad",
  "TotalReadoutTime": 0.0576811,
  "TxRefAmp": 234.565,
  "WipMemBlock": "f12dd224-ad0f-414c-9d25-91b6fcc88f1e||Sequence: R016 ve11c/master r/e634e98; Dec 19 2017 11:00:25 by eja",
  "dcmmeta_affine": [
    [-1.9967654943466187, 0.025093385949730873, 0.11089569330215454, 104.65061950683594],
    [-0.0018602124182507396, 1.943212628364563, -0.4732031524181366, -75.93344116210938],
    [0.11368409544229507, 0.4725410044193268, 1.9400465488433838, -62.621238708496094],
    [0.0, 0.0, 0.0, 1.0]
],
  "dcmmeta_reorient_transform": [
    [0.0, -1.0, 0.0, 103.0],
    [1.0, 0.0, 0.0, 0.0],
    [0.0, 0.0, 1.0, 0.0],
    [0.0, 0.0, 0.0, 1.0]
],
  "dcmmeta_shape": [104, 104, 60, 207],
  "dcmmeta_slice_dim": 2,
  "dcmmeta_version": 0.6,
  "global": {
    "const": {
      "AcquisitionMatrix": [104, 0, 0, 104],
      "AngioFlag": "N",
      "BitsAllocated": 16,
      "BitsStored": 16,
      "BodyPartExamined": "BRAIN",
      "Columns": 832,
      "EchoNumbers": 1,
      "EchoTime": 37.0,
      "EchoTrainLength": 104,
      "FlipAngle": 52.0,
      "HighBit": 15,
      "ImageOrientationPatient": [0.99838275056626, 0.00093010618723, 0.05684204671037, 0.01254669309746, 0.9716063140791, -0.2362705037324],
      "ImagePositionPatient": [-843.19186985924, -832.22397490988, 116.67440315272],
      "ImageType": [
        "ORIGINAL",
        "PRIMARY",
        "P",
        "MB",
        "ND",
        "MOSAIC"
],
      "ImagedNucleus": "1H",
      "ImagingFrequency": 123.258932,
      "InPlanePhaseEncodingDirection": "COL",
      "LargestImagePixelValue": 4095,
      "MRAcquisitionType": "2D",
      "MagneticFieldStrength": 3.0,
      "Manufacturer": "SIEMENS",
      "ManufacturerModelName": "Prisma_fit",
      "Modality": "MR",
      "NumberOfAverages": 1.0,
      "NumberOfPhaseEncodingSteps": 104,
      "PercentPhaseFieldOfView": 100.0,
      "PercentSampling": 100.0,
      "PerformedProcedureStepStartTime": "135554.515000",
      "PhotometricInterpretation": "MONOCHROME2",
      "PixelBandwidth": 2290.0,
      "PixelRepresentation": 0,
      "PixelSpacing": [2.0, 2.0],
      "ProtocolName": "func_task-gamepad_run-1",
      "RepetitionTime": 1490.0,
      "RescaleIntercept": -4096.0,
      "RescaleSlope": 2.0,
      "RescaleType": "US",
      "Rows": 832,
      "SAR": 0.04206298625988,
      "SamplesPerPixel": 1,
      "ScanOptions": "FS",
      "ScanningSequence": "EP",
      "SequenceName": "epfid2d1_104",
      "SequenceVariant": [
        "SK",
        "SS"
],
      "SeriesDescription": "func_task-gamepad_run-1",
      "SeriesNumber": 11,
      "SeriesTime": "140038.930000",
      "SliceLocation": -36.975437278434,
      "SliceThickness": 2.0,
      "SmallestImagePixelValue": 0,
      "SoftwareVersions": "syngo MR E11",
      "SpacingBetweenSlices": 1.9999999773958,
      "SpecificCharacterSet": "ISO_IR 100",
      "StudyID": "1",
      "StudyTime": "135554.409000",
      "TransmitCoilName": "Body",
      "VariableFlipAngleFlag": "N",
      "WindowCenterWidthExplanation": "Algo1",
      "dBdt": 0.0},
    "slices": {}
  },
  "time": {
    "samples": {
      "AcquisitionNumber": [1, 2, 3, 4, 5, 6, 7, 8, 9, 10, 11, 12, 13, 14, 15, 16, 17, 18, 19, 20, 21, 22, 23, 24, 25, 26, 27, 28, 29, 30, 31, 32, 33, 34, 35, 36, 37, 38, 39, 40, 41, 42, 43, 44, 45, 46, 47, 48, 49, 50, 51, 52, 53, 54, 55, 56, 57, 58, 59, 60, 61, 62, 63, 64, 65, 66, 67, 68, 69, 70, 71, 72, 73, 74, 75, 76, 77, 78, 79, 80, 81, 82, 83, 84, 85, 86, 87, 88, 89, 90, 91, 92, 93, 94, 95, 96, 97, 98, 99, 100, 101, 102, 103, 104, 105, 106, 107, 108, 109, 110, 111, 112, 113, 114, 115, 116, 117, 118, 119, 120, 121, 122, 123, 124, 125, 126, 127, 128, 129, 130, 131, 132, 133, 134, 135, 136, 137, 138, 139, 140, 141, 142, 143, 144, 145, 146, 147, 148, 149, 150, 151, 152, 153, 154, 155, 156, 157, 158, 159, 160, 161, 162, 163, 164, 165, 166, 167, 168, 169, 170, 171, 172, 173, 174, 175, 176, 177, 178, 179, 180, 181, 182, 183, 184, 185, 186, 187, 188, 189, 190, 191, 192, 193, 194, 195, 196, 197, 198, 199, 200, 201, 202, 203, 204, 205, 206, 207],
      "AcquisitionTime": ["135922.335000", "135923.825000", "135925.315000", "135926.805000", "135928.295000", "135929.785000", "135931.275000", "135932.765000", "135934.255000", "135935.745000", "135937.235000", "135938.725000", "135940.215000", "135941.705000", "135943.195000", "135944.685000", "135946.175000", "135947.665000", "135949.155000", "135950.645000", "135952.135000", "135953.625000", "135955.115000", "135956.605000", "135958.095000", "135959.585000", "140001.075000", "140002.565000", "140004.055000", "140005.545000", "140007.035000", "140008.525000", "140010.015000", "140011.505000", "140012.995000", "140014.485000", "140015.975000", "140017.465000", "140018.955000", "140020.445000", "140021.935000", "140023.425000", "140024.915000", "140026.405000", "140027.895000", "140029.385000", "140030.875000", "140032.365000", "140033.855000", "140035.345000", "140036.835000", "140038.325000", "140039.815000", "140041.305000", "140042.795000", "140044.285000", "140045.775000", "140047.265000", "140048.755000", "140050.245000", "140051.735000", "140053.225000", "140054.715000", "140056.205000", "140057.695000", "140059.185000", "140100.675000", "140102.165000", "140103.655000", "140105.145000", "140106.635000", "140108.125000", "140109.615000", "140111.105000", "140112.595000", "140114.085000", "140115.575000", "140117.065000", "140118.555000", "140120.045000", "140121.535000", "140123.025000", "140124.515000", "140126.005000", "140127.495000", "140128.985000", "140130.475000", "140131.965000", "140133.455000", "140134.945000", "140136.435000", "140137.925000", "140139.415000", "140140.905000", "140142.395000", "140143.885000", "140145.375000", "140146.865000", "140148.355000", "140149.845000", "140151.335000", "140152.825000", "140154.315000", "140155.805000", "140157.295000", "140158.785000", "140200.275000", "140201.765000", "140203.255000", "140204.745000", "140206.235000", "140207.725000", "140209.215000", "140210.705000", "140212.195000", "140213.685000", "140215.175000", "140216.665000", "140218.155000", "140219.645000", "140221.135000", "140222.625000", "140224.115000", "140225.605000", "140227.095000", "140228.585000", "140230.075000", "140231.565000", "140233.055000", "140234.545000", "140236.035000", "140237.525000", "140239.015000", "140240.505000", "140241.995000", "140243.485000", "140244.975000", "140246.465000", "140247.955000", "140249.445000", "140250.935000", "140252.425000", "140253.915000", "140255.405000", "140256.895000", "140258.385000", "140259.875000", "140301.365000", "140302.855000", "140304.345000", "140305.835000", "140307.325000", "140308.815000", "140310.305000", "140311.795000", "140313.285000", "140314.775000", "140316.265000", "140317.755000", "140319.245000", "140320.735000", "140322.225000", "140323.715000", "140325.205000", "140326.695000", "140328.185000", "140329.675000", "140331.165000", "140332.655000", "140334.145000", "140335.635000", "140337.125000", "140338.615000", "140340.105000", "140341.595000", "140343.085000", "140344.575000", "140346.065000", "140347.555000", "140349.045000", "140350.535000", "140352.025000", "140353.515000", "140355.005000", "140356.495000", "140357.985000", "140359.475000", "140400.965000", "140402.455000", "140403.945000", "140405.435000", "140406.925000", "140408.415000", "140409.905000", "140411.395000", "140412.885000", "140414.375000", "140415.865000", "140417.355000", "140418.845000", "140420.335000", "140421.825000", "140423.315000", "140424.805000", "140426.295000", "140427.785000", "140429.275000"],
      "ContentTime": ["140038.932000", "140038.935000", "140038.937000", "140038.940000", "140038.942000", "140038.945000", "140038.947000", "140038.957000", "140038.960000", "140038.962000", "140038.965000", "140038.967000", "140038.970000", "140038.972000", "140038.975000", "140038.977000", "140038.980000", "140038.982000", "140038.985000", "140038.987000", "140058.966000", "140058.969000", "140058.971000", "140058.974000", "140058.976000", "140058.979000", "140058.981000", "140058.984000", "140058.986000", "140058.989000", "140058.991000", "140058.994000", "140058.996000", "140059.000000", "140059.003000", "140059.005000", "140059.008000", "140059.010000", "140059.013000", "140059.015000", "140118.906000", "140118.908000", "140118.911000", "140118.913000", "140118.916000", "140118.918000", "140118.921000", "140118.924000", "140118.926000", "140118.937000", "140118.939000", "140118.942000", "140118.944000", "140118.947000", "140118.949000", "140118.952000", "140118.954000", "140118.957000", "140118.959000", "140118.962000", "140118.964000", "140138.890000", "140138.893000", "140138.899000", "140138.902000", "140138.904000", "140138.907000", "140138.909000", "140138.912000", "140138.914000", "140138.917000", "140138.919000", "140138.922000", "140138.924000", "140138.927000", "140138.929000", "140138.932000", "140138.934000", "140138.937000", "140138.939000", "140138.942000", "140158.895000", "140158.898000", "140158.902000", "140158.904000", "140158.907000", "140158.909000", "140158.912000", "140158.914000", "140158.917000", "140158.919000", "140158.922000", "140158.924000", "140158.927000", "140158.929000", "140158.932000", "140158.934000", "140158.937000", "140158.940000", "140158.942000", "140158.945000", "140238.956000", "140238.958000", "140238.961000", "140238.964000", "140238.966000", "140238.969000", "140238.971000", "140238.974000", "140238.976000", "140238.979000", "140238.981000", "140238.983000", "140238.986000", "140238.988000", "140238.991000", "140239.002000", "140239.005000", "140239.007000", "140239.010000", "140239.013000", "140239.015000", "140239.018000", "140239.020000", "140239.031000", "140239.033000", "140239.036000", "140239.038000", "140239.041000", "140239.044000", "140239.046000", "140318.952000", "140318.955000", "140318.957000", "140318.960000", "140318.963000", "140318.965000", "140318.968000", "140318.970000", "140318.973000", "140318.975000", "140318.978000", "140318.980000", "140318.983000", "140318.985000", "140318.988000", "140318.990000", "140318.993000", "140318.995000", "140318.998000", "140319.001000", "140319.004000", "140319.006000", "140319.009000", "140319.012000", "140319.014000", "140319.017000", "140319.019000", "140358.950000", "140358.953000", "140358.955000", "140358.958000", "140358.960000", "140358.963000", "140358.965000", "140358.968000", "140358.970000", "140358.973000", "140358.975000", "140358.978000", "140358.980000", "140358.983000", "140358.986000", "140358.988000", "140358.991000", "140358.993000", "140358.996000", "140358.998000", "140359.002000", "140359.004000", "140359.007000", "140359.009000", "140359.012000", "140359.014000", "140359.017000", "140432.318000", "140432.322000", "140432.325000", "140432.328000", "140432.331000", "140432.333000", "140432.336000", "140432.340000", "140432.342000", "140432.345000", "140432.348000", "140432.350000", "140432.353000", "140432.356000", "140432.358000", "140432.361000", "140432.363000", "140432.366000", "140432.369000", "140432.372000", "140432.374000", "140432.377000"],
      "InstanceCreationTime": ["140038.932000", "140038.935000", "140038.937000", "140038.940000", "140038.942000", "140038.945000", "140038.947000", "140038.957000", "140038.960000", "140038.962000", "140038.965000", "140038.967000", "140038.970000", "140038.972000", "140038.975000", "140038.977000", "140038.980000", "140038.982000", "140038.985000", "140038.987000", "140058.966000", "140058.969000", "140058.971000", "140058.974000", "140058.976000", "140058.979000", "140058.981000", "140058.984000", "140058.986000", "140058.989000", "140058.991000", "140058.994000", "140058.996000", "140059.000000", "140059.003000", "140059.005000", "140059.008000", "140059.010000", "140059.013000", "140059.015000", "140118.906000", "140118.908000", "140118.911000", "140118.913000", "140118.916000", "140118.918000", "140118.921000", "140118.924000", "140118.926000", "140118.937000", "140118.939000", "140118.942000", "140118.944000", "140118.947000", "140118.949000", "140118.952000", "140118.954000", "140118.957000", "140118.959000", "140118.962000", "140118.964000", "140138.890000", "140138.893000", "140138.899000", "140138.902000", "140138.904000", "140138.907000", "140138.909000", "140138.912000", "140138.914000", "140138.917000", "140138.919000", "140138.922000", "140138.924000", "140138.927000", "140138.929000", "140138.932000", "140138.934000", "140138.937000", "140138.939000", "140138.942000", "140158.895000", "140158.898000", "140158.902000", "140158.904000", "140158.907000", "140158.909000", "140158.912000", "140158.914000", "140158.917000", "140158.919000", "140158.922000", "140158.924000", "140158.927000", "140158.929000", "140158.932000", "140158.934000", "140158.937000", "140158.940000", "140158.942000", "140158.945000", "140238.956000", "140238.958000", "140238.961000", "140238.964000", "140238.966000", "140238.969000", "140238.971000", "140238.974000", "140238.976000", "140238.979000", "140238.981000", "140238.983000", "140238.986000", "140238.988000", "140238.991000", "140239.002000", "140239.005000", "140239.007000", "140239.010000", "140239.013000", "140239.015000", "140239.018000", "140239.020000", "140239.031000", "140239.033000", "140239.036000", "140239.038000", "140239.041000", "140239.044000", "140239.046000", "140318.952000", "140318.955000", "140318.957000", "140318.960000", "140318.963000", "140318.965000", "140318.968000", "140318.970000", "140318.973000", "140318.975000", "140318.978000", "140318.980000", "140318.983000", "140318.985000", "140318.988000", "140318.990000", "140318.993000", "140318.995000", "140318.998000", "140319.001000", "140319.004000", "140319.006000", "140319.009000", "140319.012000", "140319.014000", "140319.017000", "140319.019000", "140358.950000", "140358.953000", "140358.955000", "140358.958000", "140358.960000", "140358.963000", "140358.965000", "140358.968000", "140358.970000", "140358.973000", "140358.975000", "140358.978000", "140358.980000", "140358.983000", "140358.986000", "140358.988000", "140358.991000", "140358.993000", "140358.996000", "140358.998000", "140359.002000", "140359.004000", "140359.007000", "140359.009000", "140359.012000", "140359.014000", "140359.017000", "140432.318000", "140432.322000", "140432.325000", "140432.328000", "140432.331000", "140432.333000", "140432.336000", "140432.340000", "140432.342000", "140432.345000", "140432.348000", "140432.350000", "140432.353000", "140432.356000", "140432.358000", "140432.361000", "140432.363000", "140432.366000", "140432.369000", "140432.372000", "140432.374000", "140432.377000"],
      "InstanceNumber": [1, 2, 3, 4, 5, 6, 7, 8, 9, 10, 11, 12, 13, 14, 15, 16, 17, 18, 19, 20, 21, 22, 23, 24, 25, 26, 27, 28, 29, 30, 31, 32, 33, 34, 35, 36, 37, 38, 39, 40, 41, 42, 43, 44, 45, 46, 47, 48, 49, 50, 51, 52, 53, 54, 55, 56, 57, 58, 59, 60, 61, 62, 63, 64, 65, 66, 67, 68, 69, 70, 71, 72, 73, 74, 75, 76, 77, 78, 79, 80, 81, 82, 83, 84, 85, 86, 87, 88, 89, 90, 91, 92, 93, 94, 95, 96, 97, 98, 99, 100, 101, 102, 103, 104, 105, 106, 107, 108, 109, 110, 111, 112, 113, 114, 115, 116, 117, 118, 119, 120, 121, 122, 123, 124, 125, 126, 127, 128, 129, 130, 131, 132, 133, 134, 135, 136, 137, 138, 139, 140, 141, 142, 143, 144, 145, 146, 147, 148, 149, 150, 151, 152, 153, 154, 155, 156, 157, 158, 159, 160, 161, 162, 163, 164, 165, 166, 167, 168, 169, 170, 171, 172, 173, 174, 175, 176, 177, 178, 179, 180, 181, 182, 183, 184, 185, 186, 187, 188, 189, 190, 191, 192, 193, 194, 195, 196, 197, 198, 199, 200, 201, 202, 203, 204, 205, 206, 207],
      "WindowCenter": [4752.0, 4754.0, 4756.0, 4750.0, 4756.0, 4756.0, 4754.0, 4756.0, 4754.0, 4756.0, 4758.0, 4754.0, 4758.0, 4756.0, 4754.0, 4756.0, 4754.0, 4756.0, 4750.0, 4756.0, 4754.0, 4756.0, 4756.0, 4756.0, 4754.0, 4754.0, 4754.0, 4754.0, 4758.0, 4756.0, 4754.0, 4760.0, 4754.0, 4760.0, 4754.0, 4756.0, 4754.0, 4756.0, 4758.0, 4752.0, 4754.0, 4756.0, 4758.0, 4756.0, 4754.0, 4756.0, 4756.0, 4756.0, 4758.0, 4754.0, 4756.0, 4754.0, 4758.0, 4756.0, 4756.0, 4756.0, 4758.0, 4758.0, 4754.0, 4756.0, 4756.0, 4756.0, 4756.0, 4756.0, 4758.0, 4754.0, 4754.0, 4754.0, 4756.0, 4754.0, 4754.0, 4756.0, 4754.0, 4754.0, 4758.0, 4756.0, 4758.0, 4758.0, 4754.0, 4754.0, 4756.0, 4754.0, 4762.0, 4756.0, 4756.0, 4756.0, 4756.0, 4756.0, 4756.0, 4756.0, 4754.0, 4756.0, 4758.0, 4754.0, 4758.0, 4756.0, 4762.0, 4756.0, 4752.0, 4754.0, 4752.0, 4756.0, 4758.0, 4758.0, 4758.0, 4758.0, 4756.0, 4754.0, 4758.0, 4756.0, 4756.0, 4754.0, 4758.0, 4754.0, 4758.0, 4756.0, 4758.0, 4756.0, 4756.0, 4754.0, 4758.0, 4754.0, 4758.0, 4754.0, 4756.0, 4758.0, 4760.0, 4760.0, 4758.0, 4752.0, 4754.0, 4756.0, 4760.0, 4756.0, 4756.0, 4754.0, 4758.0, 4754.0, 4758.0, 4760.0, 4756.0, 4756.0, 4756.0, 4754.0, 4756.0, 4756.0, 4760.0, 4756.0, 4754.0, 4756.0, 4756.0, 4758.0, 4754.0, 4756.0, 4754.0, 4754.0, 4760.0, 4758.0, 4758.0, 4758.0, 4758.0, 4756.0, 4758.0, 4758.0, 4756.0, 4754.0, 4756.0, 4754.0, 4760.0, 4756.0, 4756.0, 4756.0, 4758.0, 4758.0, 4758.0, 4758.0, 4760.0, 4754.0, 4758.0, 4756.0, 4756.0, 4758.0, 4758.0, 4760.0, 4756.0, 4758.0, 4758.0, 4758.0, 4756.0, 4756.0, 4756.0, 4758.0, 4758.0, 4754.0, 4758.0, 4758.0, 4760.0, 4754.0, 4756.0, 4758.0, 4758.0, 4756.0, 4758.0, 4756.0, 4756.0, 4756.0, 4756.0],
      "WindowWidth": [18526.0, 18532.0, 18530.0, 18532.0, 18532.0, 18528.0, 18530.0, 18536.0, 18528.0, 18534.0, 18532.0, 18536.0, 18530.0, 18532.0, 18532.0, 18536.0, 18536.0, 18534.0, 18528.0, 18528.0, 18530.0, 18530.0, 18534.0, 18538.0, 18530.0, 18532.0, 18528.0, 18526.0, 18534.0, 18528.0, 18530.0, 18532.0, 18532.0, 18532.0, 18530.0, 18528.0, 18534.0, 18532.0, 18536.0, 18528.0, 18534.0, 18530.0, 18532.0, 18530.0, 18526.0, 18534.0, 18530.0, 18538.0, 18534.0, 18528.0, 18528.0, 18528.0, 18534.0, 18532.0, 18528.0, 18530.0, 18532.0, 18528.0, 18528.0, 18538.0, 18532.0, 18534.0, 18538.0, 18536.0, 18532.0, 18528.0, 18528.0, 18532.0, 18528.0, 18526.0, 18530.0, 18536.0, 18536.0, 18530.0, 18532.0, 18530.0, 18534.0, 18534.0, 18530.0, 18532.0, 18532.0, 18532.0, 18534.0, 18530.0, 18530.0, 18530.0, 18536.0, 18532.0, 18530.0, 18526.0, 18528.0, 18528.0, 18534.0, 18532.0, 18542.0, 18536.0, 18536.0, 18532.0, 18524.0, 18530.0, 18524.0, 18530.0, 18532.0, 18530.0, 18530.0, 18534.0, 18530.0, 18528.0, 18532.0, 18532.0, 18532.0, 18530.0, 18538.0, 18530.0, 18530.0, 18534.0, 18532.0, 18534.0, 18530.0, 18534.0, 18532.0, 18526.0, 18534.0, 18530.0, 18532.0, 18534.0, 18532.0, 18534.0, 18532.0, 18532.0, 18528.0, 18532.0, 18534.0, 18530.0, 18528.0, 18530.0, 18534.0, 18530.0, 18534.0, 18536.0, 18534.0, 18536.0, 18526.0, 18534.0, 18534.0, 18528.0, 18536.0, 18530.0, 18528.0, 18532.0, 18530.0, 18530.0, 18526.0, 18532.0, 18532.0, 18532.0, 18536.0, 18536.0, 18534.0, 18532.0, 18532.0, 18532.0, 18534.0, 18536.0, 18534.0, 18532.0, 18526.0, 18524.0, 18532.0, 18526.0, 18532.0, 18530.0, 18532.0, 18530.0, 18534.0, 18534.0, 18534.0, 18528.0, 18534.0, 18534.0, 18532.0, 18528.0, 18532.0, 18538.0, 18532.0, 18534.0, 18530.0, 18536.0, 18528.0, 18534.0, 18536.0, 18534.0, 18532.0, 18530.0, 18534.0, 18534.0, 18530.0, 18530.0, 18528.0, 18536.0, 18536.0, 18530.0, 18538.0, 18530.0, 18536.0, 18526.0, 18530.0]
    },
    "slices": {}
  }
}