{
  "AcquisitionMatrixPE": 104,
  "AcquisitionNumber": 1,
  "AcquisitionTime": "14:09:2.075000",
  "B0FieldSource": "sub-03_ses-005_task-gamepad_run-02_part-mag_bold.nii.gz",
  "BandwidthPerPixelPhaseEncode": 17.17,
  "BaseResolution": 104,
  "BodyPartExamined": "BRAIN",
  "CoilCombinationMethod": "Sum of Squares",
  "ConsistencyInfo": "N4_VE11C_LATEST_20160120",
  "ConversionSoftware": "dcm2niix",
  "ConversionSoftwareVersion": "v1.0.20211006",
  "DerivedVendorReportedEchoSpacing": 0.000560011,
  "DeviceSerialNumber": "167006",
  "DwellTime": 2.1e-06,
  "EchoTime": 0.037,
  "EchoTrainLength": 104,
  "EffectiveEchoSpacing": 0.000560011,
  "FlipAngle": 52,
  "HeudiconvVersion": "0.10.0",
  "ImageComments": "Unaliased MB4/PE3/LB",
  "ImageOrientationPatientDICOM": [0.998383, 0.000930106, 0.056842, 0.0125467, 0.971606, -0.236271],
  "ImageOrientationText": "Tra>Cor(-13.7)>Sag(3.2)",
  "ImageType": [
    "ORIGINAL",
    "PRIMARY",
    "M",
    "MB",
    "ND",
    "MOSAIC"
],
  "ImagingFrequency": 123.259,
  "InPlanePhaseEncodingDirectionDICOM": "COL",
  "InstitutionAddress": "Chemin Queen-Mary 4565,Montreal,District,CA,H3W 1W5",
  "InstitutionName": "IUGM",
  "InstitutionalDepartmentName": "Department",
  "MRAcquisitionType": "2D",
  "MagneticFieldStrength": 3,
  "Manufacturer": "Siemens",
  "ManufacturersModelName": "Prisma_fit",
  "MatrixCoilMode": "SENSE",
  "Modality": "MR",
  "MultibandAccelerationFactor": 4,
  "PartialFourier": 1,
  "PatientPosition": "HFS",
  "PercentPhaseFOV": 100,
  "PercentSampling": 100,
  "PhaseEncodingDirection": "j",
  "PhaseEncodingSteps": 104,
  "PhaseResolution": 1,
  "PixelBandwidth": 2290,
  "ProcedureStepDescription": "games^gamepad",
  "ProtocolName": "func_task-gamepad_run-2",
  "PulseSequenceDetails": "%CustomerSeq%\\cmrr_mbep2d_bold",
  "ReceiveCoilActiveElements": "HC1-7;NC1,2",
  "ReceiveCoilName": "HeadNeck_64",
  "ReconMatrixPE": 104,
  "RepetitionTime": 1.49,
  "SAR": 0.042063,
  "ScanOptions": "FS",
  "ScanningSequence": "EP",
  "SequenceName": "epfid2d1_104",
  "SequenceVariant": "SK\\SS",
  "SeriesDescription": "func_task-gamepad_run-2",
  "SeriesNumber": 13,
  "ShimSetting": [646, -7222, -8790, 686, 44, -28, 91, -15],
  "SliceThickness": 2,
  "SliceTiming": [0, 0.7825, 0.0975, 0.8825, 0.195, 0.98, 0.2925, 1.0775, 0.3925, 1.175, 0.49, 1.2725, 0.5875, 1.3725, 0.685, 0, 0.7825, 0.0975, 0.8825, 0.195, 0.98, 0.2925, 1.0775, 0.3925, 1.175, 0.49, 1.2725, 0.5875, 1.3725, 0.685, 0, 0.7825, 0.0975, 0.8825, 0.195, 0.98, 0.2925, 1.0775, 0.3925, 1.175, 0.49, 1.2725, 0.5875, 1.3725, 0.685, 0, 0.7825, 0.0975, 0.8825, 0.195, 0.98, 0.2925, 1.0775, 0.3925, 1.175, 0.49, 1.2725, 0.5875, 1.3725, 0.685],
  "SoftwareVersions": "syngo MR E11",
  "SpacingBetweenSlices": 2,
  "StationName": "MRC35049",
  "TaskName": "gamepad",
  "TotalReadoutTime": 0.0576811,
  "TxRefAmp": 234.565,
  "WipMemBlock": "dde0a01b-00db-45db-b1c6-bc9dd3c19da6||Sequence: R016 ve11c/master r/e634e98; Dec 19 2017 11:00:25 by eja",
  "dcmmeta_affine": [
    [-1.9967654943466187, 0.025093385949730873, 0.11089569330215454, 104.65061950683594],
    [-0.0018602124182507396, 1.943212628364563, -0.4732031524181366, -75.93344116210938],
    [0.11368409544229507, 0.4725410044193268, 1.9400465488433838, -62.621238708496094],
    [0.0, 0.0, 0.0, 1.0]
],
  "dcmmeta_reorient_transform": [
    [0.0, -1.0, 0.0, 103.0],
    [1.0, 0.0, 0.0, 0.0],
    [0.0, 0.0, 1.0, 0.0],
    [0.0, 0.0, 0.0, 1.0]
],
  "dcmmeta_shape": [104, 104, 60, 207],
  "dcmmeta_slice_dim": 2,
  "dcmmeta_version": 0.6,
  "global": {
    "const": {
      "AcquisitionMatrix": [104, 0, 0, 104],
      "AngioFlag": "N",
      "BitsAllocated": 16,
      "BitsStored": 16,
      "BodyPartExamined": "BRAIN",
      "Columns": 832,
      "EchoNumbers": 1,
      "EchoTime": 37.0,
      "EchoTrainLength": 104,
      "FlipAngle": 52.0,
      "HighBit": 15,
      "ImageOrientationPatient": [0.99838275056626, 0.00093010618723, 0.05684204671037, 0.01254669309746, 0.9716063140791, -0.2362705037324],
      "ImagePositionPatient": [-843.19186985924, -832.22397490988, 116.67440315272],
      "ImageType": [
        "ORIGINAL",
        "PRIMARY",
        "M",
        "MB",
        "ND",
        "MOSAIC"
],
      "ImagedNucleus": "1H",
      "ImagingFrequency": 123.258935,
      "InPlanePhaseEncodingDirection": "COL",
      "MRAcquisitionType": "2D",
      "MagneticFieldStrength": 3.0,
      "Manufacturer": "SIEMENS",
      "ManufacturerModelName": "Prisma_fit",
      "Modality": "MR",
      "NumberOfAverages": 1.0,
      "NumberOfPhaseEncodingSteps": 104,
      "PercentPhaseFieldOfView": 100.0,
      "PercentSampling": 100.0,
      "PerformedProcedureStepStartTime": "135554.515000",
      "PhotometricInterpretation": "MONOCHROME2",
      "PixelBandwidth": 2290.0,
      "PixelRepresentation": 0,
      "PixelSpacing": [2.0, 2.0],
      "ProtocolName": "func_task-gamepad_run-2",
      "RepetitionTime": 1490.0,
      "Rows": 832,
      "SAR": 0.04206298625988,
      "SamplesPerPixel": 1,
      "ScanOptions": "FS",
      "ScanningSequence": "EP",
      "SequenceName": "epfid2d1_104",
      "SequenceVariant": [
        "SK",
        "SS"
],
      "SeriesDescription": "func_task-gamepad_run-2",
      "SeriesNumber": 13,
      "SeriesTime": "141006.573000",
      "SliceLocation": -36.975437278434,
      "SliceThickness": 2.0,
      "SmallestImagePixelValue": 0,
      "SoftwareVersions": "syngo MR E11",
      "SpacingBetweenSlices": 1.9999999773958,
      "SpecificCharacterSet": "ISO_IR 100",
      "StudyID": "1",
      "StudyTime": "135554.409000",
      "TransmitCoilName": "Body",
      "VariableFlipAngleFlag": "N",
      "WindowCenterWidthExplanation": "Algo1",
      "dBdt": 0.0},
    "slices": {}
  },
  "time": {
    "samples": {
      "AcquisitionNumber": [1, 2, 3, 4, 5, 6, 7, 8, 9, 10, 11, 12, 13, 14, 15, 16, 17, 18, 19, 20, 21, 22, 23, 24, 25, 26, 27, 28, 29, 30, 31, 32, 33, 34, 35, 36, 37, 38, 39, 40, 41, 42, 43, 44, 45, 46, 47, 48, 49, 50, 51, 52, 53, 54, 55, 56, 57, 58, 59, 60, 61, 62, 63, 64, 65, 66, 67, 68, 69, 70, 71, 72, 73, 74, 75, 76, 77, 78, 79, 80, 81, 82, 83, 84, 85, 86, 87, 88, 89, 90, 91, 92, 93, 94, 95, 96, 97, 98, 99, 100, 101, 102, 103, 104, 105, 106, 107, 108, 109, 110, 111, 112, 113, 114, 115, 116, 117, 118, 119, 120, 121, 122, 123, 124, 125, 126, 127, 128, 129, 130, 131, 132, 133, 134, 135, 136, 137, 138, 139, 140, 141, 142, 143, 144, 145, 146, 147, 148, 149, 150, 151, 152, 153, 154, 155, 156, 157, 158, 159, 160, 161, 162, 163, 164, 165, 166, 167, 168, 169, 170, 171, 172, 173, 174, 175, 176, 177, 178, 179, 180, 181, 182, 183, 184, 185, 186, 187, 188, 189, 190, 191, 192, 193, 194, 195, 196, 197, 198, 199, 200, 201, 202, 203, 204, 205, 206, 207],
      "AcquisitionTime": ["140902.075000", "140903.565000", "140905.055000", "140906.545000", "140908.035000", "140909.525000", "140911.015000", "140912.505000", "140913.995000", "140915.485000", "140916.975000", "140918.465000", "140919.955000", "140921.445000", "140922.935000", "140924.425000", "140925.915000", "140927.405000", "140928.895000", "140930.385000", "140931.875000", "140933.365000", "140934.855000", "140936.345000", "140937.835000", "140939.325000", "140940.815000", "140942.305000", "140943.795000", "140945.285000", "140946.775000", "140948.265000", "140949.755000", "140951.245000", "140952.735000", "140954.225000", "140955.715000", "140957.205000", "140958.695000", "141000.185000", "141001.675000", "141003.165000", "141004.655000", "141006.145000", "141007.635000", "141009.125000", "141010.615000", "141012.105000", "141013.595000", "141015.085000", "141016.575000", "141018.065000", "141019.555000", "141021.045000", "141022.535000", "141024.025000", "141025.515000", "141027.005000", "141028.495000", "141029.985000", "141031.475000", "141032.965000", "141034.455000", "141035.945000", "141037.435000", "141038.925000", "141040.415000", "141041.905000", "141043.395000", "141044.885000", "141046.375000", "141047.865000", "141049.355000", "141050.845000", "141052.335000", "141053.825000", "141055.315000", "141056.805000", "141058.295000", "141059.785000", "141101.275000", "141102.765000", "141104.255000", "141105.745000", "141107.235000", "141108.725000", "141110.215000", "141111.705000", "141113.195000", "141114.685000", "141116.175000", "141117.665000", "141119.155000", "141120.645000", "141122.135000", "141123.625000", "141125.115000", "141126.605000", "141128.095000", "141129.585000", "141131.075000", "141132.565000", "141134.055000", "141135.545000", "141137.035000", "141138.525000", "141140.015000", "141141.505000", "141142.995000", "141144.485000", "141145.975000", "141147.465000", "141148.955000", "141150.445000", "141151.935000", "141153.425000", "141154.915000", "141156.405000", "141157.895000", "141159.385000", "141200.875000", "141202.365000", "141203.855000", "141205.345000", "141206.835000", "141208.325000", "141209.815000", "141211.305000", "141212.795000", "141214.285000", "141215.775000", "141217.265000", "141218.755000", "141220.245000", "141221.735000", "141223.225000", "141224.715000", "141226.205000", "141227.695000", "141229.185000", "141230.675000", "141232.165000", "141233.655000", "141235.145000", "141236.635000", "141238.125000", "141239.615000", "141241.105000", "141242.595000", "141244.085000", "141245.575000", "141247.065000", "141248.555000", "141250.045000", "141251.535000", "141253.025000", "141254.515000", "141256.005000", "141257.495000", "141258.985000", "141300.475000", "141301.965000", "141303.455000", "141304.945000", "141306.435000", "141307.925000", "141309.415000", "141310.905000", "141312.395000", "141313.885000", "141315.375000", "141316.865000", "141318.355000", "141319.845000", "141321.335000", "141322.825000", "141324.315000", "141325.805000", "141327.295000", "141328.785000", "141330.275000", "141331.765000", "141333.255000", "141334.745000", "141336.235000", "141337.725000", "141339.215000", "141340.705000", "141342.195000", "141343.685000", "141345.175000", "141346.665000", "141348.155000", "141349.645000", "141351.135000", "141352.625000", "141354.115000", "141355.605000", "141357.095000", "141358.585000", "141400.075000", "141401.565000", "141403.055000", "141404.545000", "141406.035000", "141407.525000", "141409.015000"],
      "ContentTime": ["141006.576000", "141006.580000", "141006.583000", "141006.586000", "141006.589000", "141006.593000", "141006.596000", "141006.607000", "141006.610000", "141006.614000", "141006.617000", "141026.539000", "141026.542000", "141026.546000", "141026.549000", "141026.552000", "141026.556000", "141026.559000", "141026.563000", "141026.566000", "141026.569000", "141026.573000", "141026.576000", "141026.579000", "141026.583000", "141026.586000", "141026.589000", "141026.593000", "141026.596000", "141026.599000", "141026.602000", "141046.529000", "141046.533000", "141046.545000", "141046.548000", "141046.551000", "141046.555000", "141046.558000", "141046.561000", "141046.565000", "141046.568000", "141046.571000", "141046.575000", "141046.578000", "141046.581000", "141046.585000", "141046.588000", "141046.591000", "141046.595000", "141046.598000", "141046.601000", "141046.605000", "141106.529000", "141106.533000", "141106.536000", "141106.540000", "141106.543000", "141106.546000", "141106.550000", "141106.553000", "141106.556000", "141106.560000", "141106.563000", "141106.567000", "141106.570000", "141106.573000", "141106.583000", "141106.586000", "141106.589000", "141106.593000", "141106.596000", "141106.599000", "141126.529000", "141126.533000", "141126.536000", "141126.539000", "141126.543000", "141126.546000", "141126.549000", "141126.553000", "141126.556000", "141126.559000", "141126.563000", "141126.566000", "141126.577000", "141126.580000", "141126.583000", "141126.587000", "141126.590000", "141126.593000", "141126.596000", "141126.600000", "141206.528000", "141206.532000", "141206.535000", "141206.539000", "141206.542000", "141206.545000", "141206.549000", "141206.552000", "141206.564000", "141206.567000", "141206.570000", "141206.574000", "141206.577000", "141206.580000", "141206.584000", "141206.587000", "141206.591000", "141206.594000", "141206.597000", "141206.601000", "141206.604000", "141206.607000", "141206.611000", "141206.614000", "141206.617000", "141206.621000", "141206.624000", "141206.634000", "141206.637000", "141206.640000", "141206.644000", "141246.529000", "141246.533000", "141246.536000", "141246.540000", "141246.543000", "141246.546000", "141246.550000", "141246.553000", "141246.556000", "141246.560000", "141246.563000", "141246.567000", "141246.570000", "141246.574000", "141246.577000", "141246.580000", "141246.584000", "141246.587000", "141246.590000", "141246.594000", "141246.597000", "141246.601000", "141246.604000", "141246.607000", "141246.611000", "141246.614000", "141246.617000", "141326.529000", "141326.533000", "141326.536000", "141326.540000", "141326.543000", "141326.546000", "141326.550000", "141326.553000", "141326.556000", "141326.560000", "141326.563000", "141326.566000", "141326.570000", "141326.573000", "141326.576000", "141326.580000", "141326.583000", "141326.586000", "141326.590000", "141326.593000", "141326.596000", "141326.600000", "141326.608000", "141326.611000", "141326.615000", "141326.618000", "141326.621000", "141406.529000", "141406.533000", "141406.536000", "141406.540000", "141406.543000", "141406.547000", "141406.550000", "141406.553000", "141406.557000", "141406.560000", "141406.563000", "141406.567000", "141406.570000", "141406.574000", "141406.577000", "141406.580000", "141406.584000", "141406.587000", "141406.590000", "141406.594000", "141406.597000", "141406.600000", "141406.604000", "141406.607000", "141406.610000", "141406.614000", "141406.617000", "141411.029000", "141411.032000", "141411.036000"],
      "InstanceCreationTime": ["141006.576000", "141006.580000", "141006.583000", "141006.586000", "141006.589000", "141006.593000", "141006.596000", "141006.607000", "141006.610000", "141006.614000", "141006.617000", "141026.539000", "141026.542000", "141026.546000", "141026.549000", "141026.552000", "141026.556000", "141026.559000", "141026.563000", "141026.566000", "141026.569000", "141026.573000", "141026.576000", "141026.579000", "141026.583000", "141026.586000", "141026.589000", "141026.593000", "141026.596000", "141026.599000", "141026.602000", "141046.529000", "141046.533000", "141046.545000", "141046.548000", "141046.551000", "141046.555000", "141046.558000", "141046.561000", "141046.565000", "141046.568000", "141046.571000", "141046.575000", "141046.578000", "141046.581000", "141046.585000", "141046.588000", "141046.591000", "141046.595000", "141046.598000", "141046.601000", "141046.605000", "141106.529000", "141106.533000", "141106.536000", "141106.540000", "141106.543000", "141106.546000", "141106.550000", "141106.553000", "141106.556000", "141106.560000", "141106.563000", "141106.567000", "141106.570000", "141106.573000", "141106.583000", "141106.586000", "141106.589000", "141106.593000", "141106.596000", "141106.599000", "141126.529000", "141126.533000", "141126.536000", "141126.539000", "141126.543000", "141126.546000", "141126.549000", "141126.553000", "141126.556000", "141126.559000", "141126.563000", "141126.566000", "141126.577000", "141126.580000", "141126.583000", "141126.587000", "141126.590000", "141126.593000", "141126.596000", "141126.600000", "141206.528000", "141206.532000", "141206.535000", "141206.539000", "141206.542000", "141206.545000", "141206.549000", "141206.552000", "141206.564000", "141206.567000", "141206.570000", "141206.574000", "141206.577000", "141206.580000", "141206.584000", "141206.587000", "141206.591000", "141206.594000", "141206.597000", "141206.601000", "141206.604000", "141206.607000", "141206.611000", "141206.614000", "141206.617000", "141206.621000", "141206.624000", "141206.634000", "141206.637000", "141206.640000", "141206.644000", "141246.529000", "141246.533000", "141246.536000", "141246.540000", "141246.543000", "141246.546000", "141246.550000", "141246.553000", "141246.556000", "141246.560000", "141246.563000", "141246.567000", "141246.570000", "141246.574000", "141246.577000", "141246.580000", "141246.584000", "141246.587000", "141246.590000", "141246.594000", "141246.597000", "141246.601000", "141246.604000", "141246.607000", "141246.611000", "141246.614000", "141246.617000", "141326.529000", "141326.533000", "141326.536000", "141326.540000", "141326.543000", "141326.546000", "141326.550000", "141326.553000", "141326.556000", "141326.560000", "141326.563000", "141326.566000", "141326.570000", "141326.573000", "141326.576000", "141326.580000", "141326.583000", "141326.586000", "141326.590000", "141326.593000", "141326.596000", "141326.600000", "141326.608000", "141326.611000", "141326.615000", "141326.618000", "141326.621000", "141406.529000", "141406.533000", "141406.536000", "141406.540000", "141406.543000", "141406.547000", "141406.550000", "141406.553000", "141406.557000", "141406.560000", "141406.563000", "141406.567000", "141406.570000", "141406.574000", "141406.577000", "141406.580000", "141406.584000", "141406.587000", "141406.590000", "141406.594000", "141406.597000", "141406.600000", "141406.604000", "141406.607000", "141406.610000", "141406.614000", "141406.617000", "141411.029000", "141411.032000", "141411.036000"],
      "InstanceNumber": [1, 2, 3, 4, 5, 6, 7, 8, 9, 10, 11, 12, 13, 14, 15, 16, 17, 18, 19, 20, 21, 22, 23, 24, 25, 26, 27, 28, 29, 30, 31, 32, 33, 34, 35, 36, 37, 38, 39, 40, 41, 42, 43, 44, 45, 46, 47, 48, 49, 50, 51, 52, 53, 54, 55, 56, 57, 58, 59, 60, 61, 62, 63, 64, 65, 66, 67, 68, 69, 70, 71, 72, 73, 74, 75, 76, 77, 78, 79, 80, 81, 82, 83, 84, 85, 86, 87, 88, 89, 90, 91, 92, 93, 94, 95, 96, 97, 98, 99, 100, 101, 102, 103, 104, 105, 106, 107, 108, 109, 110, 111, 112, 113, 114, 115, 116, 117, 118, 119, 120, 121, 122, 123, 124, 125, 126, 127, 128, 129, 130, 131, 132, 133, 134, 135, 136, 137, 138, 139, 140, 141, 142, 143, 144, 145, 146, 147, 148, 149, 150, 151, 152, 153, 154, 155, 156, 157, 158, 159, 160, 161, 162, 163, 164, 165, 166, 167, 168, 169, 170, 171, 172, 173, 174, 175, 176, 177, 178, 179, 180, 181, 182, 183, 184, 185, 186, 187, 188, 189, 190, 191, 192, 193, 194, 195, 196, 197, 198, 199, 200, 201, 202, 203, 204, 205, 206, 207],
      "LargestImagePixelValue": [41313, 40016, 39703, 39327, 39231, 39116, 38734, 38885, 39040, 38896, 38694, 39163, 38685, 38795, 38816, 38925, 38573, 38176, 38668, 38286, 38482, 38552, 38670, 38073, 38424, 37535, 38112, 38148, 37945, 38056, 38229, 38518, 38131, 37747, 38360, 38289, 38269, 38388, 38397, 38500, 38217, 38366, 38457, 38605, 38141, 38344, 37682, 38327, 38184, 38200, 37816, 38132, 37692, 37842, 37830, 37995, 37819, 37798, 38010, 37771, 37777, 37789, 37902, 37669, 37945, 37763, 37690, 37850, 37414, 37489, 37454, 37468, 37797, 37818, 37523, 37736, 37615, 37829, 37892, 37794, 37886, 38295, 38079, 37664, 37715, 37487, 37807, 37556, 37919, 37995, 38185, 37649, 37563, 37230, 37411, 37665, 37512, 37722, 37670, 37561, 37737, 37763, 37634, 37895, 37618, 38094, 38024, 37616, 37998, 38003, 38171, 37915, 38264, 38328, 37639, 37693, 38281, 37919, 38269, 37716, 37938, 37769, 37933, 38230, 38701, 38166, 38169, 37769, 37909, 38453, 38430, 37620, 38096, 37766, 38407, 37932, 37700, 37917, 38035, 37646, 37830, 38132, 37998, 38040, 38068, 37763, 37657, 37752, 38015, 37369, 37454, 37570, 37667, 37768, 37728, 37602, 37179, 37239, 38013, 37794, 37643, 37993, 37453, 37313, 37917, 37372, 37823, 37281, 37061, 37175, 37640, 37537, 37592, 37364, 37671, 37748, 37127, 37587, 38019, 37599, 37388, 37588, 37612, 37775, 37809, 38065, 37945, 37237, 37748, 37797, 37731, 37469, 37689, 37219, 37153, 37431, 37551, 37537, 37574, 37436, 37421, 37352, 37434, 37403, 37650, 37556, 37526],
      "WindowCenter": [10080.0, 10037.0, 10005.0, 9979.0, 9984.0, 9994.0, 9997.0, 10011.0, 10028.0, 10032.0, 10025.0, 10030.0, 10032.0, 10048.0, 10066.0, 10084.0, 10080.0, 10064.0, 10051.0, 10035.0, 10036.0, 10050.0, 10057.0, 10052.0, 10053.0, 10056.0, 10072.0, 10073.0, 10061.0, 10045.0, 10036.0, 10051.0, 10047.0, 10048.0, 10052.0, 10051.0, 10043.0, 10041.0, 10036.0, 10035.0, 10036.0, 10042.0, 10036.0, 10033.0, 10026.0, 10016.0, 10003.0, 10007.0, 10008.0, 10008.0, 10018.0, 10025.0, 10012.0, 10003.0, 10007.0, 10024.0, 10022.0, 10013.0, 10003.0, 9995.0, 10002.0, 10011.0, 10027.0, 10037.0, 10037.0, 10027.0, 10021.0, 10020.0, 10013.0, 10006.0, 10004.0, 10009.0, 10017.0, 10026.0, 10015.0, 10019.0, 10026.0, 10037.0, 10032.0, 10023.0, 10021.0, 10027.0, 10027.0, 10021.0, 10023.0, 10023.0, 10029.0, 10030.0, 10038.0, 10045.0, 10047.0, 10049.0, 10042.0, 10033.0, 10024.0, 10022.0, 10015.0, 10014.0, 10020.0, 10024.0, 10024.0, 10008.0, 10004.0, 10011.0, 10020.0, 10022.0, 10021.0, 10005.0, 9994.0, 9992.0, 10000.0, 10003.0, 10016.0, 10017.0, 10005.0, 10002.0, 9994.0, 9993.0, 9990.0, 9999.0, 10014.0, 10018.0, 10012.0, 10010.0, 10014.0, 10010.0, 10009.0, 9995.0, 9993.0, 10008.0, 10018.0, 10020.0, 10019.0, 10014.0, 10011.0, 10001.0, 9994.0, 9995.0, 10002.0, 9996.0, 9996.0, 10001.0, 10001.0, 10003.0, 10010.0, 10005.0, 10004.0, 10004.0, 10019.0, 10015.0, 10012.0, 10004.0, 9995.0, 9978.0, 9984.0, 9995.0, 9997.0, 9989.0, 9999.0, 9993.0, 9994.0, 10001.0, 10004.0, 10005.0, 10003.0, 9996.0, 10002.0, 10006.0, 10006.0, 9983.0, 9984.0, 9978.0, 9985.0, 9987.0, 9995.0, 9993.0, 9988.0, 9986.0, 9985.0, 9979.0, 9979.0, 9977.0, 9968.0, 9966.0, 9980.0, 9991.0, 9999.0, 9982.0, 9984.0, 9983.0, 9994.0, 10003.0, 10010.0, 9997.0, 9997.0, 10003.0, 9998.0, 9997.0, 9995.0, 9986.0, 9979.0, 9987.0, 9993.0, 9987.0, 9986.0, 9984.0, 9994.0],
      "WindowWidth": [21447.0, 21329.0, 21241.0, 21175.0, 21183.0, 21204.0, 21215.0, 21243.0, 21281.0, 21291.0, 21276.0, 21283.0, 21289.0, 21328.0, 21370.0, 21410.0, 21402.0, 21367.0, 21333.0, 21297.0, 21299.0, 21331.0, 21347.0, 21337.0, 21341.0, 21350.0, 21385.0, 21384.0, 21356.0, 21319.0, 21301.0, 21332.0, 21327.0, 21329.0, 21335.0, 21330.0, 21312.0, 21307.0, 21298.0, 21295.0, 21299.0, 21311.0, 21297.0, 21288.0, 21271.0, 21249.0, 21224.0, 21228.0, 21233.0, 21232.0, 21255.0, 21269.0, 21242.0, 21222.0, 21229.0, 21266.0, 21268.0, 21245.0, 21222.0, 21205.0, 21221.0, 21244.0, 21277.0, 21301.0, 21300.0, 21278.0, 21266.0, 21264.0, 21248.0, 21234.0, 21227.0, 21235.0, 21253.0, 21274.0, 21252.0, 21259.0, 21275.0, 21299.0, 21290.0, 21269.0, 21266.0, 21277.0, 21277.0, 21266.0, 21270.0, 21273.0, 21282.0, 21288.0, 21304.0, 21318.0, 21324.0, 21329.0, 21315.0, 21294.0, 21272.0, 21265.0, 21249.0, 21248.0, 21261.0, 21273.0, 21272.0, 21237.0, 21225.0, 21242.0, 21263.0, 21266.0, 21261.0, 21225.0, 21198.0, 21194.0, 21213.0, 21224.0, 21247.0, 21251.0, 21225.0, 21218.0, 21199.0, 21195.0, 21187.0, 21210.0, 21241.0, 21251.0, 21238.0, 21232.0, 21240.0, 21235.0, 21230.0, 21201.0, 21197.0, 21230.0, 21253.0, 21258.0, 21256.0, 21248.0, 21237.0, 21213.0, 21200.0, 21203.0, 21219.0, 21205.0, 21206.0, 21216.0, 21215.0, 21221.0, 21237.0, 21229.0, 21223.0, 21223.0, 21257.0, 21251.0, 21241.0, 21219.0, 21199.0, 21160.0, 21173.0, 21202.0, 21212.0, 21192.0, 21208.0, 21196.0, 21202.0, 21218.0, 21228.0, 21228.0, 21222.0, 21205.0, 21220.0, 21230.0, 21230.0, 21180.0, 21176.0, 21166.0, 21181.0, 21186.0, 21202.0, 21195.0, 21187.0, 21181.0, 21176.0, 21167.0, 21168.0, 21161.0, 21141.0, 21135.0, 21167.0, 21192.0, 21211.0, 21177.0, 21175.0, 21174.0, 21202.0, 21224.0, 21237.0, 21210.0, 21208.0, 21220.0, 21212.0, 21206.0, 21204.0, 21182.0, 21169.0, 21184.0, 21196.0, 21185.0, 21182.0, 21177.0, 21201.0]
    },
    "slices": {}
  }
}