{
  "AcquisitionMatrixPE": 104,
  "AcquisitionNumber": 1,
  "AcquisitionTime": "13:59:22.335000",
  "BandwidthPerPixelPhaseEncode": 17.17,
  "BaseResolution": 104,
  "BodyPartExamined": "BRAIN",
  "CoilCombinationMethod": "Sum of Squares",
  "ConsistencyInfo": "N4_VE11C_LATEST_20160120",
  "ConversionSoftware": "dcm2niix",
  "ConversionSoftwareVersion": "v1.0.20211006",
  "DerivedVendorReportedEchoSpacing": 0.000560011,
  "DeviceSerialNumber": "167006",
  "DwellTime": 2.1e-06,
  "EchoTime": 0.037,
  "EchoTrainLength": 104,
  "EffectiveEchoSpacing": 0.000560011,
  "FlipAngle": 52,
  "HeudiconvVersion": "0.10.0",
  "ImageComments": "Unaliased MB4/PE3/LB",
  "ImageOrientationPatientDICOM": [0.998383, 0.000930106, 0.056842, 0.0125467, 0.971606, -0.236271],
  "ImageOrientationText": "Tra>Cor(-13.7)>Sag(3.2)",
  "ImageType": [
    "ORIGINAL",
    "PRIMARY",
    "M",
    "MB",
    "ND",
    "MOSAIC"
],
  "ImagingFrequency": 123.259,
  "InPlanePhaseEncodingDirectionDICOM": "COL",
  "InstitutionAddress": "Chemin Queen-Mary 4565,Montreal,District,CA,H3W 1W5",
  "InstitutionName": "IUGM",
  "InstitutionalDepartmentName": "Department",
  "MRAcquisitionType": "2D",
  "MagneticFieldStrength": 3,
  "Manufacturer": "Siemens",
  "ManufacturersModelName": "Prisma_fit",
  "MatrixCoilMode": "SENSE",
  "Modality": "MR",
  "MultibandAccelerationFactor": 4,
  "PartialFourier": 1,
  "PatientPosition": "HFS",
  "PercentPhaseFOV": 100,
  "PercentSampling": 100,
  "PhaseEncodingDirection": "j",
  "PhaseEncodingSteps": 104,
  "PhaseResolution": 1,
  "PixelBandwidth": 2290,
  "ProcedureStepDescription": "games^gamepad",
  "ProtocolName": "func_task-gamepad_run-1",
  "PulseSequenceDetails": "%CustomerSeq%\\cmrr_mbep2d_bold",
  "ReceiveCoilActiveElements": "HC1-7;NC1,2",
  "ReceiveCoilName": "HeadNeck_64",
  "ReconMatrixPE": 104,
  "RepetitionTime": 1.49,
  "SAR": 0.042063,
  "ScanOptions": "FS",
  "ScanningSequence": "EP",
  "SequenceName": "epfid2d1_104",
  "SequenceVariant": "SK\\SS",
  "SeriesDescription": "func_task-gamepad_run-1",
  "SeriesNumber": 10,
  "ShimSetting": [646, -7222, -8790, 686, 44, -28, 91, -15],
  "SliceThickness": 2,
  "SliceTiming": [0, 0.785, 0.1, 0.8825, 0.1975, 0.98, 0.295, 1.08, 0.3925, 1.1775, 0.49, 1.275, 0.59, 1.3725, 0.6875, 0, 0.785, 0.1, 0.8825, 0.1975, 0.98, 0.295, 1.08, 0.3925, 1.1775, 0.49, 1.275, 0.59, 1.3725, 0.6875, 0, 0.785, 0.1, 0.8825, 0.1975, 0.98, 0.295, 1.08, 0.3925, 1.1775, 0.49, 1.275, 0.59, 1.3725, 0.6875, 0, 0.785, 0.1, 0.8825, 0.1975, 0.98, 0.295, 1.08, 0.3925, 1.1775, 0.49, 1.275, 0.59, 1.3725, 0.6875],
  "SoftwareVersions": "syngo MR E11",
  "SpacingBetweenSlices": 2,
  "StationName": "MRC35049",
  "TaskName": "gamepad",
  "TotalReadoutTime": 0.0576811,
  "TxRefAmp": 234.565,
  "WipMemBlock": "f12dd224-ad0f-414c-9d25-91b6fcc88f1e||Sequence: R016 ve11c/master r/e634e98; Dec 19 2017 11:00:25 by eja",
  "dcmmeta_affine": [
    [-1.9967654943466187, 0.025093385949730873, 0.11089569330215454, 104.65061950683594],
    [-0.0018602124182507396, 1.943212628364563, -0.4732031524181366, -75.93344116210938],
    [0.11368409544229507, 0.4725410044193268, 1.9400465488433838, -62.621238708496094],
    [0.0, 0.0, 0.0, 1.0]
],
  "dcmmeta_reorient_transform": [
    [0.0, -1.0, 0.0, 103.0],
    [1.0, 0.0, 0.0, 0.0],
    [0.0, 0.0, 1.0, 0.0],
    [0.0, 0.0, 0.0, 1.0]
],
  "dcmmeta_shape": [104, 104, 60, 207],
  "dcmmeta_slice_dim": 2,
  "dcmmeta_version": 0.6,
  "global": {
    "const": {
      "AcquisitionMatrix": [104, 0, 0, 104],
      "AngioFlag": "N",
      "BitsAllocated": 16,
      "BitsStored": 16,
      "BodyPartExamined": "BRAIN",
      "Columns": 832,
      "EchoNumbers": 1,
      "EchoTime": 37.0,
      "EchoTrainLength": 104,
      "FlipAngle": 52.0,
      "HighBit": 15,
      "ImageOrientationPatient": [0.99838275056626, 0.00093010618723, 0.05684204671037, 0.01254669309746, 0.9716063140791, -0.2362705037324],
      "ImagePositionPatient": [-843.19186985924, -832.22397490988, 116.67440315272],
      "ImageType": [
        "ORIGINAL",
        "PRIMARY",
        "M",
        "MB",
        "ND",
        "MOSAIC"
],
      "ImagedNucleus": "1H",
      "ImagingFrequency": 123.258932,
      "InPlanePhaseEncodingDirection": "COL",
      "MRAcquisitionType": "2D",
      "MagneticFieldStrength": 3.0,
      "Manufacturer": "SIEMENS",
      "ManufacturerModelName": "Prisma_fit",
      "Modality": "MR",
      "NumberOfAverages": 1.0,
      "NumberOfPhaseEncodingSteps": 104,
      "PercentPhaseFieldOfView": 100.0,
      "PercentSampling": 100.0,
      "PerformedProcedureStepStartTime": "135554.515000",
      "PhotometricInterpretation": "MONOCHROME2",
      "PixelBandwidth": 2290.0,
      "PixelRepresentation": 0,
      "PixelSpacing": [2.0, 2.0],
      "ProtocolName": "func_task-gamepad_run-1",
      "RepetitionTime": 1490.0,
      "Rows": 832,
      "SAR": 0.04206298625988,
      "SamplesPerPixel": 1,
      "ScanOptions": "FS",
      "ScanningSequence": "EP",
      "SequenceName": "epfid2d1_104",
      "SequenceVariant": [
        "SK",
        "SS"
],
      "SeriesDescription": "func_task-gamepad_run-1",
      "SeriesNumber": 10,
      "SeriesTime": "140038.819000",
      "SliceLocation": -36.975437278434,
      "SliceThickness": 2.0,
      "SmallestImagePixelValue": 0,
      "SoftwareVersions": "syngo MR E11",
      "SpacingBetweenSlices": 1.9999999773958,
      "SpecificCharacterSet": "ISO_IR 100",
      "StudyID": "1",
      "StudyTime": "135554.409000",
      "TransmitCoilName": "Body",
      "VariableFlipAngleFlag": "N",
      "WindowCenterWidthExplanation": "Algo1",
      "dBdt": 0.0},
    "slices": {}
  },
  "time": {
    "samples": {
      "AcquisitionNumber": [1, 2, 3, 4, 5, 6, 7, 8, 9, 10, 11, 12, 13, 14, 15, 16, 17, 18, 19, 20, 21, 22, 23, 24, 25, 26, 27, 28, 29, 30, 31, 32, 33, 34, 35, 36, 37, 38, 39, 40, 41, 42, 43, 44, 45, 46, 47, 48, 49, 50, 51, 52, 53, 54, 55, 56, 57, 58, 59, 60, 61, 62, 63, 64, 65, 66, 67, 68, 69, 70, 71, 72, 73, 74, 75, 76, 77, 78, 79, 80, 81, 82, 83, 84, 85, 86, 87, 88, 89, 90, 91, 92, 93, 94, 95, 96, 97, 98, 99, 100, 101, 102, 103, 104, 105, 106, 107, 108, 109, 110, 111, 112, 113, 114, 115, 116, 117, 118, 119, 120, 121, 122, 123, 124, 125, 126, 127, 128, 129, 130, 131, 132, 133, 134, 135, 136, 137, 138, 139, 140, 141, 142, 143, 144, 145, 146, 147, 148, 149, 150, 151, 152, 153, 154, 155, 156, 157, 158, 159, 160, 161, 162, 163, 164, 165, 166, 167, 168, 169, 170, 171, 172, 173, 174, 175, 176, 177, 178, 179, 180, 181, 182, 183, 184, 185, 186, 187, 188, 189, 190, 191, 192, 193, 194, 195, 196, 197, 198, 199, 200, 201, 202, 203, 204, 205, 206, 207],
      "AcquisitionTime": ["135922.335000", "135923.825000", "135925.315000", "135926.805000", "135928.295000", "135929.785000", "135931.275000", "135932.765000", "135934.255000", "135935.745000", "135937.235000", "135938.725000", "135940.215000", "135941.705000", "135943.195000", "135944.685000", "135946.175000", "135947.665000", "135949.155000", "135950.645000", "135952.135000", "135953.625000", "135955.115000", "135956.605000", "135958.095000", "135959.585000", "140001.075000", "140002.565000", "140004.055000", "140005.545000", "140007.035000", "140008.525000", "140010.015000", "140011.505000", "140012.995000", "140014.485000", "140015.975000", "140017.465000", "140018.955000", "140020.445000", "140021.935000", "140023.425000", "140024.915000", "140026.405000", "140027.895000", "140029.385000", "140030.875000", "140032.365000", "140033.855000", "140035.345000", "140036.835000", "140038.325000", "140039.815000", "140041.305000", "140042.795000", "140044.285000", "140045.775000", "140047.265000", "140048.755000", "140050.245000", "140051.735000", "140053.225000", "140054.715000", "140056.205000", "140057.695000", "140059.185000", "140100.675000", "140102.165000", "140103.655000", "140105.145000", "140106.635000", "140108.125000", "140109.615000", "140111.105000", "140112.595000", "140114.085000", "140115.575000", "140117.065000", "140118.555000", "140120.045000", "140121.535000", "140123.025000", "140124.515000", "140126.005000", "140127.495000", "140128.985000", "140130.475000", "140131.965000", "140133.455000", "140134.945000", "140136.435000", "140137.925000", "140139.415000", "140140.905000", "140142.395000", "140143.885000", "140145.375000", "140146.865000", "140148.355000", "140149.845000", "140151.335000", "140152.825000", "140154.315000", "140155.805000", "140157.295000", "140158.785000", "140200.275000", "140201.765000", "140203.255000", "140204.745000", "140206.235000", "140207.725000", "140209.215000", "140210.705000", "140212.195000", "140213.685000", "140215.175000", "140216.665000", "140218.155000", "140219.645000", "140221.135000", "140222.625000", "140224.115000", "140225.605000", "140227.095000", "140228.585000", "140230.075000", "140231.565000", "140233.055000", "140234.545000", "140236.035000", "140237.525000", "140239.015000", "140240.505000", "140241.995000", "140243.485000", "140244.975000", "140246.465000", "140247.955000", "140249.445000", "140250.935000", "140252.425000", "140253.915000", "140255.405000", "140256.895000", "140258.385000", "140259.875000", "140301.365000", "140302.855000", "140304.345000", "140305.835000", "140307.325000", "140308.815000", "140310.305000", "140311.795000", "140313.285000", "140314.775000", "140316.265000", "140317.755000", "140319.245000", "140320.735000", "140322.225000", "140323.715000", "140325.205000", "140326.695000", "140328.185000", "140329.675000", "140331.165000", "140332.655000", "140334.145000", "140335.635000", "140337.125000", "140338.615000", "140340.105000", "140341.595000", "140343.085000", "140344.575000", "140346.065000", "140347.555000", "140349.045000", "140350.535000", "140352.025000", "140353.515000", "140355.005000", "140356.495000", "140357.985000", "140359.475000", "140400.965000", "140402.455000", "140403.945000", "140405.435000", "140406.925000", "140408.415000", "140409.905000", "140411.395000", "140412.885000", "140414.375000", "140415.865000", "140417.355000", "140418.845000", "140420.335000", "140421.825000", "140423.315000", "140424.805000", "140426.295000", "140427.785000", "140429.275000"],
      "ContentTime": ["140038.822000", "140038.826000", "140038.829000", "140038.834000", "140038.837000", "140038.840000", "140038.844000", "140038.847000", "140038.850000", "140038.854000", "140038.857000", "140038.860000", "140038.864000", "140038.867000", "140038.870000", "140038.874000", "140038.890000", "140038.893000", "140038.896000", "140038.900000", "140058.790000", "140058.794000", "140058.797000", "140058.807000", "140058.810000", "140058.814000", "140058.817000", "140058.820000", "140058.824000", "140058.827000", "140058.830000", "140058.834000", "140058.837000", "140058.840000", "140058.843000", "140058.847000", "140058.850000", "140058.853000", "140058.857000", "140058.860000", "140118.793000", "140118.797000", "140118.800000", "140118.803000", "140118.807000", "140118.810000", "140118.813000", "140118.817000", "140118.820000", "140118.823000", "140118.826000", "140118.830000", "140118.833000", "140118.836000", "140118.840000", "140118.843000", "140118.846000", "140118.850000", "140118.853000", "140118.856000", "140118.860000", "140138.790000", "140138.794000", "140138.797000", "140138.800000", "140138.804000", "140138.807000", "140138.810000", "140138.814000", "140138.817000", "140138.820000", "140138.824000", "140138.827000", "140138.830000", "140138.834000", "140138.837000", "140138.840000", "140138.844000", "140138.847000", "140138.850000", "140138.854000", "140158.790000", "140158.794000", "140158.797000", "140158.801000", "140158.804000", "140158.807000", "140158.810000", "140158.814000", "140158.817000", "140158.820000", "140158.824000", "140158.827000", "140158.831000", "140158.834000", "140158.837000", "140158.840000", "140158.844000", "140158.847000", "140158.851000", "140158.854000", "140238.790000", "140238.794000", "140238.797000", "140238.801000", "140238.804000", "140238.808000", "140238.811000", "140238.814000", "140238.818000", "140238.821000", "140238.825000", "140238.828000", "140238.831000", "140238.834000", "140238.838000", "140238.841000", "140238.844000", "140238.848000", "140238.851000", "140238.855000", "140238.858000", "140238.861000", "140238.864000", "140238.868000", "140238.871000", "140238.875000", "140238.878000", "140238.881000", "140238.885000", "140238.888000", "140318.790000", "140318.794000", "140318.797000", "140318.801000", "140318.804000", "140318.807000", "140318.811000", "140318.814000", "140318.822000", "140318.825000", "140318.829000", "140318.832000", "140318.835000", "140318.839000", "140318.842000", "140318.845000", "140318.849000", "140318.852000", "140318.855000", "140318.859000", "140318.877000", "140318.880000", "140318.884000", "140318.887000", "140318.890000", "140318.894000", "140318.897000", "140358.790000", "140358.794000", "140358.797000", "140358.800000", "140358.804000", "140358.807000", "140358.811000", "140358.814000", "140358.817000", "140358.821000", "140358.830000", "140358.833000", "140358.837000", "140358.840000", "140358.844000", "140358.847000", "140358.851000", "140358.854000", "140358.857000", "140358.861000", "140358.864000", "140358.868000", "140358.871000", "140358.874000", "140358.878000", "140358.881000", "140358.884000", "140431.538000", "140431.542000", "140431.546000", "140431.550000", "140431.553000", "140431.557000", "140431.560000", "140431.564000", "140431.567000", "140431.571000", "140431.574000", "140431.578000", "140431.581000", "140431.585000", "140431.588000", "140431.591000", "140431.595000", "140431.598000", "140431.602000", "140431.605000", "140431.608000", "140431.612000"],
      "InstanceCreationTime": ["140038.822000", "140038.826000", "140038.829000", "140038.834000", "140038.837000", "140038.840000", "140038.844000", "140038.847000", "140038.850000", "140038.854000", "140038.857000", "140038.860000", "140038.864000", "140038.867000", "140038.870000", "140038.874000", "140038.890000", "140038.893000", "140038.896000", "140038.900000", "140058.790000", "140058.794000", "140058.797000", "140058.807000", "140058.810000", "140058.814000", "140058.817000", "140058.820000", "140058.824000", "140058.827000", "140058.830000", "140058.834000", "140058.837000", "140058.840000", "140058.843000", "140058.847000", "140058.850000", "140058.853000", "140058.857000", "140058.860000", "140118.793000", "140118.797000", "140118.800000", "140118.803000", "140118.807000", "140118.810000", "140118.813000", "140118.817000", "140118.820000", "140118.823000", "140118.826000", "140118.830000", "140118.833000", "140118.836000", "140118.840000", "140118.843000", "140118.846000", "140118.850000", "140118.853000", "140118.856000", "140118.860000", "140138.790000", "140138.794000", "140138.797000", "140138.800000", "140138.804000", "140138.807000", "140138.810000", "140138.814000", "140138.817000", "140138.820000", "140138.824000", "140138.827000", "140138.830000", "140138.834000", "140138.837000", "140138.840000", "140138.844000", "140138.847000", "140138.850000", "140138.854000", "140158.790000", "140158.794000", "140158.797000", "140158.801000", "140158.804000", "140158.807000", "140158.810000", "140158.814000", "140158.817000", "140158.820000", "140158.824000", "140158.827000", "140158.831000", "140158.834000", "140158.837000", "140158.840000", "140158.844000", "140158.847000", "140158.851000", "140158.854000", "140238.790000", "140238.794000", "140238.797000", "140238.801000", "140238.804000", "140238.808000", "140238.811000", "140238.814000", "140238.818000", "140238.821000", "140238.825000", "140238.828000", "140238.831000", "140238.834000", "140238.838000", "140238.841000", "140238.844000", "140238.848000", "140238.851000", "140238.855000", "140238.858000", "140238.861000", "140238.864000", "140238.868000", "140238.871000", "140238.875000", "140238.878000", "140238.881000", "140238.885000", "140238.888000", "140318.790000", "140318.794000", "140318.797000", "140318.801000", "140318.804000", "140318.807000", "140318.811000", "140318.814000", "140318.822000", "140318.825000", "140318.829000", "140318.832000", "140318.835000", "140318.839000", "140318.842000", "140318.845000", "140318.849000", "140318.852000", "140318.855000", "140318.859000", "140318.877000", "140318.880000", "140318.884000", "140318.887000", "140318.890000", "140318.894000", "140318.897000", "140358.790000", "140358.794000", "140358.797000", "140358.800000", "140358.804000", "140358.807000", "140358.811000", "140358.814000", "140358.817000", "140358.821000", "140358.830000", "140358.833000", "140358.837000", "140358.840000", "140358.844000", "140358.847000", "140358.851000", "140358.854000", "140358.857000", "140358.861000", "140358.864000", "140358.868000", "140358.871000", "140358.874000", "140358.878000", "140358.881000", "140358.884000", "140431.538000", "140431.542000", "140431.546000", "140431.550000", "140431.553000", "140431.557000", "140431.560000", "140431.564000", "140431.567000", "140431.571000", "140431.574000", "140431.578000", "140431.581000", "140431.585000", "140431.588000", "140431.591000", "140431.595000", "140431.598000", "140431.602000", "140431.605000", "140431.608000", "140431.612000"],
      "InstanceNumber": [1, 2, 3, 4, 5, 6, 7, 8, 9, 10, 11, 12, 13, 14, 15, 16, 17, 18, 19, 20, 21, 22, 23, 24, 25, 26, 27, 28, 29, 30, 31, 32, 33, 34, 35, 36, 37, 38, 39, 40, 41, 42, 43, 44, 45, 46, 47, 48, 49, 50, 51, 52, 53, 54, 55, 56, 57, 58, 59, 60, 61, 62, 63, 64, 65, 66, 67, 68, 69, 70, 71, 72, 73, 74, 75, 76, 77, 78, 79, 80, 81, 82, 83, 84, 85, 86, 87, 88, 89, 90, 91, 92, 93, 94, 95, 96, 97, 98, 99, 100, 101, 102, 103, 104, 105, 106, 107, 108, 109, 110, 111, 112, 113, 114, 115, 116, 117, 118, 119, 120, 121, 122, 123, 124, 125, 126, 127, 128, 129, 130, 131, 132, 133, 134, 135, 136, 137, 138, 139, 140, 141, 142, 143, 144, 145, 146, 147, 148, 149, 150, 151, 152, 153, 154, 155, 156, 157, 158, 159, 160, 161, 162, 163, 164, 165, 166, 167, 168, 169, 170, 171, 172, 173, 174, 175, 176, 177, 178, 179, 180, 181, 182, 183, 184, 185, 186, 187, 188, 189, 190, 191, 192, 193, 194, 195, 196, 197, 198, 199, 200, 201, 202, 203, 204, 205, 206, 207],
      "LargestImagePixelValue": [41992, 40730, 40090, 39752, 39426, 39642, 39340, 39115, 39412, 39384, 39499, 39157, 39179, 38960, 39435, 39257, 39358, 39724, 39128, 39191, 39775, 39236, 39842, 39638, 39499, 39520, 39602, 39128, 39353, 39349, 39445, 39261, 39382, 39207, 39647, 39303, 39574, 39345, 39488, 38910, 38998, 39205, 39394, 39784, 39153, 39520, 39649, 39321, 39517, 39474, 39253, 39593, 39444, 39246, 38878, 39307, 38739, 38325, 39160, 39485, 38947, 39064, 39088, 39426, 39555, 39496, 38686, 39181, 38926, 39001, 39151, 39580, 39024, 38761, 39031, 38970, 39183, 38822, 38895, 39399, 39120, 39449, 39431, 39342, 39418, 39022, 38918, 39119, 38894, 39514, 39070, 39630, 39048, 39014, 39141, 39519, 39532, 39437, 39025, 39044, 38936, 39214, 39102, 39242, 38591, 39033, 39077, 38854, 39063, 38855, 38880, 39274, 38975, 39333, 38770, 39175, 39068, 39207, 39296, 39408, 39226, 39485, 39247, 39068, 38696, 39242, 39108, 38979, 39200, 38940, 39479, 39476, 39146, 38951, 39287, 39301, 39399, 39021, 38967, 39462, 39217, 39189, 39374, 39318, 38852, 38905, 38720, 38618, 38910, 38839, 38786, 39447, 38955, 39159, 39007, 38774, 39261, 39160, 38875, 38872, 38815, 38753, 38883, 38962, 39004, 39509, 38879, 38689, 39111, 39410, 38892, 38821, 38701, 38837, 39264, 39073, 39285, 39008, 39265, 38889, 39202, 39242, 39131, 39227, 38681, 38964, 39187, 39008, 38870, 39091, 38390, 38894, 39072, 39192, 39370, 39402, 39235, 39367, 38931, 38952, 39500, 39209, 39214, 39047, 39174, 39162, 39187],
      "WindowCenter": [10234.0, 10195.0, 10191.0, 10192.0, 10195.0, 10191.0, 10175.0, 10159.0, 10164.0, 10164.0, 10171.0, 10173.0, 10167.0, 10165.0, 10171.0, 10172.0, 10173.0, 10179.0, 10167.0, 10166.0, 10161.0, 10148.0, 10152.0, 10161.0, 10169.0, 10170.0, 10160.0, 10147.0, 10146.0, 10153.0, 10162.0, 10178.0, 10180.0, 10168.0, 10162.0, 10163.0, 10176.0, 10173.0, 10173.0, 10172.0, 10164.0, 10173.0, 10189.0, 10190.0, 10183.0, 10173.0, 10173.0, 10173.0, 10174.0, 10167.0, 10166.0, 10171.0, 10171.0, 10171.0, 10174.0, 10173.0, 10167.0, 10150.0, 10162.0, 10158.0, 10151.0, 10154.0, 10157.0, 10163.0, 10169.0, 10163.0, 10150.0, 10148.0, 10154.0, 10155.0, 10156.0, 10155.0, 10156.0, 10149.0, 10149.0, 10157.0, 10163.0, 10142.0, 10130.0, 10119.0, 10127.0, 10137.0, 10145.0, 10152.0, 10162.0, 10156.0, 10157.0, 10156.0, 10155.0, 10162.0, 10165.0, 10172.0, 10158.0, 10142.0, 10140.0, 10147.0, 10162.0, 10165.0, 10159.0, 10151.0, 10143.0, 10140.0, 10147.0, 10149.0, 10148.0, 10147.0, 10148.0, 10142.0, 10140.0, 10131.0, 10138.0, 10154.0, 10159.0, 10158.0, 10151.0, 10149.0, 10147.0, 10146.0, 10138.0, 10131.0, 10131.0, 10143.0, 10161.0, 10165.0, 10154.0, 10149.0, 10149.0, 10157.0, 10165.0, 10160.0, 10156.0, 10147.0, 10142.0, 10149.0, 10156.0, 10149.0, 10147.0, 10141.0, 10140.0, 10138.0, 10137.0, 10138.0, 10146.0, 10154.0, 10151.0, 10143.0, 10134.0, 10139.0, 10156.0, 10159.0, 10151.0, 10141.0, 10142.0, 10150.0, 10145.0, 10135.0, 10130.0, 10131.0, 10142.0, 10144.0, 10135.0, 10125.0, 10123.0, 10130.0, 10148.0, 10157.0, 10144.0, 10127.0, 10129.0, 10137.0, 10148.0, 10136.0, 10135.0, 10127.0, 10146.0, 10151.0, 10165.0, 10159.0, 10151.0, 10141.0, 10140.0, 10141.0, 10140.0, 10131.0, 10125.0, 10128.0, 10129.0, 10129.0, 10132.0, 10139.0, 10126.0, 10123.0, 10122.0, 10128.0, 10129.0, 10130.0, 10146.0, 10155.0, 10149.0, 10140.0, 10131.0, 10130.0, 10128.0, 10114.0, 10100.0, 10104.0, 10113.0],
      "WindowWidth": [21800.0, 21690.0, 21666.0, 21665.0, 21670.0, 21658.0, 21618.0, 21583.0, 21594.0, 21595.0, 21608.0, 21615.0, 21603.0, 21597.0, 21607.0, 21612.0, 21615.0, 21626.0, 21603.0, 21597.0, 21583.0, 21555.0, 21561.0, 21585.0, 21602.0, 21602.0, 21578.0, 21551.0, 21550.0, 21567.0, 21589.0, 21624.0, 21629.0, 21606.0, 21587.0, 21591.0, 21618.0, 21615.0, 21614.0, 21611.0, 21591.0, 21614.0, 21649.0, 21651.0, 21635.0, 21612.0, 21611.0, 21613.0, 21615.0, 21599.0, 21598.0, 21606.0, 21606.0, 21607.0, 21615.0, 21612.0, 21601.0, 21562.0, 21583.0, 21577.0, 21561.0, 21567.0, 21575.0, 21588.0, 21600.0, 21587.0, 21561.0, 21555.0, 21564.0, 21569.0, 21571.0, 21568.0, 21570.0, 21556.0, 21557.0, 21574.0, 21585.0, 21538.0, 21507.0, 21484.0, 21503.0, 21528.0, 21547.0, 21561.0, 21584.0, 21572.0, 21574.0, 21570.0, 21570.0, 21583.0, 21592.0, 21606.0, 21577.0, 21539.0, 21535.0, 21549.0, 21583.0, 21591.0, 21580.0, 21562.0, 21542.0, 21537.0, 21551.0, 21555.0, 21555.0, 21551.0, 21552.0, 21539.0, 21534.0, 21516.0, 21530.0, 21565.0, 21579.0, 21573.0, 21558.0, 21551.0, 21546.0, 21543.0, 21526.0, 21513.0, 21513.0, 21537.0, 21579.0, 21594.0, 21569.0, 21557.0, 21556.0, 21575.0, 21592.0, 21582.0, 21569.0, 21550.0, 21540.0, 21556.0, 21571.0, 21557.0, 21549.0, 21536.0, 21532.0, 21529.0, 21524.0, 21529.0, 21546.0, 21566.0, 21561.0, 21544.0, 21521.0, 21534.0, 21571.0, 21581.0, 21560.0, 21537.0, 21539.0, 21556.0, 21548.0, 21523.0, 21511.0, 21514.0, 21541.0, 21546.0, 21521.0, 21498.0, 21493.0, 21510.0, 21553.0, 21573.0, 21547.0, 21503.0, 21505.0, 21526.0, 21552.0, 21530.0, 21526.0, 21509.0, 21546.0, 21562.0, 21591.0, 21577.0, 21558.0, 21534.0, 21532.0, 21538.0, 21535.0, 21512.0, 21501.0, 21504.0, 21506.0, 21506.0, 21515.0, 21529.0, 21503.0, 21493.0, 21492.0, 21504.0, 21507.0, 21512.0, 21548.0, 21569.0, 21555.0, 21531.0, 21510.0, 21507.0, 21503.0, 21471.0, 21440.0, 21448.0, 21470.0]
    },
    "slices": {}
  }
}