{
  "AcquisitionMatrixPE": 104,
  "AcquisitionNumber": 1,
  "AcquisitionTime": "16:12:0.805000",
  "B0FieldSource": "sub-06_ses-002_task-gamepad_run-01_part-mag_bold.nii.gz",
  "BandwidthPerPixelPhaseEncode": 17.17,
  "BaseResolution": 104,
  "BodyPartExamined": "BRAIN",
  "CoilCombinationMethod": "Sum of Squares",
  "ConsistencyInfo": "N4_VE11C_LATEST_20160120",
  "ConversionSoftware": "dcm2niix",
  "ConversionSoftwareVersion": "v1.0.20211006",
  "DerivedVendorReportedEchoSpacing": 0.000560011,
  "DeviceSerialNumber": "167006",
  "DwellTime": 2.1e-06,
  "EchoTime": 0.037,
  "EchoTrainLength": 104,
  "EffectiveEchoSpacing": 0.000560011,
  "FlipAngle": 52,
  "HeudiconvVersion": "0.10.0",
  "ImageComments": "Unaliased MB4/PE3/LB",
  "ImageOrientationPatientDICOM": [0.999489, -0.0319505, 0.000459721, 0.0294896, 0.916777, -0.39831],
  "ImageOrientationText": "Tra>Cor(-23.5)>Sag(-0.7)",
  "ImageType": [
    "ORIGINAL",
    "PRIMARY",
    "M",
    "MB",
    "ND",
    "MOSAIC"
],
  "ImagingFrequency": 123.259,
  "InPlanePhaseEncodingDirectionDICOM": "COL",
  "InstitutionAddress": "Chemin Queen-Mary 4565,Montreal,District,CA,H3W 1W5",
  "InstitutionName": "IUGM",
  "InstitutionalDepartmentName": "Department",
  "MRAcquisitionType": "2D",
  "MagneticFieldStrength": 3,
  "Manufacturer": "Siemens",
  "ManufacturersModelName": "Prisma_fit",
  "MatrixCoilMode": "SENSE",
  "Modality": "MR",
  "MultibandAccelerationFactor": 4,
  "PartialFourier": 1,
  "PatientPosition": "HFS",
  "PercentPhaseFOV": 100,
  "PercentSampling": 100,
  "PhaseEncodingDirection": "j",
  "PhaseEncodingSteps": 104,
  "PhaseResolution": 1,
  "PixelBandwidth": 2290,
  "ProcedureStepDescription": "games^gamepad",
  "ProtocolName": "func_task-gamepad_run-1",
  "PulseSequenceDetails": "%CustomerSeq%\\cmrr_mbep2d_bold",
  "ReceiveCoilActiveElements": "HC1-7;NC1,2",
  "ReceiveCoilName": "HeadNeck_64",
  "ReconMatrixPE": 104,
  "RepetitionTime": 1.49,
  "SAR": 0.0402344,
  "ScanOptions": "FS",
  "ScanningSequence": "EP",
  "SequenceName": "epfid2d1_104",
  "SequenceVariant": "SK\\SS",
  "SeriesDescription": "func_task-gamepad_run-1",
  "SeriesNumber": 10,
  "ShimSetting": [631, -7254, -8832, 507, 5, -201, -79, -24],
  "SliceThickness": 2,
  "SliceTiming": [0, 0.785, 0.0975, 0.8825, 0.1975, 0.98, 0.295, 1.0775, 0.3925, 1.1775, 0.49, 1.275, 0.5875, 1.3725, 0.6875, 0, 0.785, 0.0975, 0.8825, 0.1975, 0.98, 0.295, 1.0775, 0.3925, 1.1775, 0.49, 1.275, 0.5875, 1.3725, 0.6875, 0, 0.785, 0.0975, 0.8825, 0.1975, 0.98, 0.295, 1.0775, 0.3925, 1.1775, 0.49, 1.275, 0.5875, 1.3725, 0.6875, 0, 0.785, 0.0975, 0.8825, 0.1975, 0.98, 0.295, 1.0775, 0.3925, 1.1775, 0.49, 1.275, 0.5875, 1.3725, 0.6875],
  "SoftwareVersions": "syngo MR E11",
  "SpacingBetweenSlices": 2,
  "StationName": "MRC35049",
  "TaskName": "gamepad",
  "TotalReadoutTime": 0.0576811,
  "TxRefAmp": 243.649,
  "WipMemBlock": "db579d61-6b81-461e-9a06-4e5ebb29159d||Sequence: R016 ve11c/master r/e634e98; Dec 19 2017 11:00:25 by eja",
  "dcmmeta_affine": [
    [-1.9989787340164185, 0.05897923558950424, -0.024609452113509178, 104.50800323486328],
    [0.06390094012022018, 1.8335535526275635, -0.7962400913238525, -62.944480895996094],
    [0.0009194428566843271, 0.7966197729110718, 1.8345016241073608, -67.3835220336914],
    [0.0, 0.0, 0.0, 1.0]
],
  "dcmmeta_reorient_transform": [
    [0.0, -1.0, 0.0, 103.0],
    [1.0, 0.0, 0.0, 0.0],
    [0.0, 0.0, 1.0, 0.0],
    [0.0, 0.0, 0.0, 1.0]
],
  "dcmmeta_shape": [104, 104, 60, 207],
  "dcmmeta_slice_dim": 2,
  "dcmmeta_version": 0.6,
  "global": {
    "const": {
      "AcquisitionMatrix": [104, 0, 0, 104],
      "AngioFlag": "N",
      "BitsAllocated": 16,
      "BitsStored": 16,
      "BodyPartExamined": "BRAIN",
      "Columns": 832,
      "EchoNumbers": 1,
      "EchoTime": 37.0,
      "EchoTrainLength": 104,
      "FlipAngle": 52.0,
      "HighBit": 15,
      "ImageOrientationPatient": [0.99948934768381, -0.0319504698369, 0.00045972143799, 0.0294896183416, 0.9167767472545, -0.3983098769846],
      "ImagePositionPatient": [-859.6795552904, -770.06505784322, 304.3032224202],
      "ImageType": [
        "ORIGINAL",
        "PRIMARY",
        "M",
        "MB",
        "ND",
        "MOSAIC"
],
      "ImagedNucleus": "1H",
      "ImagingFrequency": 123.258892,
      "InPlanePhaseEncodingDirection": "COL",
      "MRAcquisitionType": "2D",
      "MagneticFieldStrength": 3.0,
      "Manufacturer": "SIEMENS",
      "ManufacturerModelName": "Prisma_fit",
      "Modality": "MR",
      "NumberOfAverages": 1.0,
      "NumberOfPhaseEncodingSteps": 104,
      "PercentPhaseFieldOfView": 100.0,
      "PercentSampling": 100.0,
      "PerformedProcedureStepStartTime": "160634.183000",
      "PhotometricInterpretation": "MONOCHROME2",
      "PixelBandwidth": 2290.0,
      "PixelRepresentation": 0,
      "PixelSpacing": [2.0, 2.0],
      "ProtocolName": "func_task-gamepad_run-1",
      "RepetitionTime": 1490.0,
      "Rows": 832,
      "SAR": 0.04023443908481,
      "SamplesPerPixel": 1,
      "ScanOptions": "FS",
      "ScanningSequence": "EP",
      "SequenceName": "epfid2d1_104",
      "SequenceVariant": [
        "SK",
        "SS"
],
      "SeriesDescription": "func_task-gamepad_run-1",
      "SeriesNumber": 10,
      "SeriesTime": "161259.593000",
      "SliceLocation": -38.03407556241,
      "SliceThickness": 2.0,
      "SmallestImagePixelValue": 0,
      "SoftwareVersions": "syngo MR E11",
      "SpacingBetweenSlices": 2.000000028419,
      "SpecificCharacterSet": "ISO_IR 100",
      "StudyID": "1",
      "StudyTime": "160634.094000",
      "TransmitCoilName": "Body",
      "VariableFlipAngleFlag": "N",
      "WindowCenterWidthExplanation": "Algo1",
      "dBdt": 0.0},
    "slices": {}
  },
  "time": {
    "samples": {
      "AcquisitionNumber": [1, 2, 3, 4, 5, 6, 7, 8, 9, 10, 11, 12, 13, 14, 15, 16, 17, 18, 19, 20, 21, 22, 23, 24, 25, 26, 27, 28, 29, 30, 31, 32, 33, 34, 35, 36, 37, 38, 39, 40, 41, 42, 43, 44, 45, 46, 47, 48, 49, 50, 51, 52, 53, 54, 55, 56, 57, 58, 59, 60, 61, 62, 63, 64, 65, 66, 67, 68, 69, 70, 71, 72, 73, 74, 75, 76, 77, 78, 79, 80, 81, 82, 83, 84, 85, 86, 87, 88, 89, 90, 91, 92, 93, 94, 95, 96, 97, 98, 99, 100, 101, 102, 103, 104, 105, 106, 107, 108, 109, 110, 111, 112, 113, 114, 115, 116, 117, 118, 119, 120, 121, 122, 123, 124, 125, 126, 127, 128, 129, 130, 131, 132, 133, 134, 135, 136, 137, 138, 139, 140, 141, 142, 143, 144, 145, 146, 147, 148, 149, 150, 151, 152, 153, 154, 155, 156, 157, 158, 159, 160, 161, 162, 163, 164, 165, 166, 167, 168, 169, 170, 171, 172, 173, 174, 175, 176, 177, 178, 179, 180, 181, 182, 183, 184, 185, 186, 187, 188, 189, 190, 191, 192, 193, 194, 195, 196, 197, 198, 199, 200, 201, 202, 203, 204, 205, 206, 207],
      "AcquisitionTime": ["161200.805000", "161202.295000", "161203.785000", "161205.275000", "161206.765000", "161208.255000", "161209.745000", "161211.235000", "161212.725000", "161214.215000", "161215.705000", "161217.195000", "161218.685000", "161220.175000", "161221.665000", "161223.155000", "161224.645000", "161226.135000", "161227.625000", "161229.115000", "161230.605000", "161232.095000", "161233.585000", "161235.075000", "161236.565000", "161238.055000", "161239.545000", "161241.035000", "161242.525000", "161244.015000", "161245.505000", "161246.995000", "161248.485000", "161249.975000", "161251.465000", "161252.955000", "161254.445000", "161255.935000", "161257.425000", "161258.915000", "161300.405000", "161301.895000", "161303.385000", "161304.875000", "161306.365000", "161307.855000", "161309.345000", "161310.835000", "161312.325000", "161313.815000", "161315.305000", "161316.795000", "161318.285000", "161319.775000", "161321.265000", "161322.755000", "161324.245000", "161325.735000", "161327.225000", "161328.715000", "161330.205000", "161331.695000", "161333.185000", "161334.675000", "161336.165000", "161337.655000", "161339.145000", "161340.635000", "161342.125000", "161343.615000", "161345.105000", "161346.595000", "161348.085000", "161349.575000", "161351.065000", "161352.555000", "161354.045000", "161355.535000", "161357.025000", "161358.515000", "161400.005000", "161401.495000", "161402.985000", "161404.475000", "161405.965000", "161407.455000", "161408.945000", "161410.435000", "161411.925000", "161413.415000", "161414.905000", "161416.395000", "161417.885000", "161419.375000", "161420.865000", "161422.355000", "161423.845000", "161425.335000", "161426.825000", "161428.315000", "161429.805000", "161431.295000", "161432.785000", "161434.275000", "161435.765000", "161437.255000", "161438.745000", "161440.235000", "161441.725000", "161443.215000", "161444.705000", "161446.195000", "161447.685000", "161449.175000", "161450.665000", "161452.155000", "161453.645000", "161455.135000", "161456.625000", "161458.115000", "161459.605000", "161501.095000", "161502.585000", "161504.075000", "161505.565000", "161507.055000", "161508.545000", "161510.035000", "161511.525000", "161513.015000", "161514.505000", "161515.995000", "161517.485000", "161518.975000", "161520.465000", "161521.955000", "161523.445000", "161524.935000", "161526.425000", "161527.915000", "161529.405000", "161530.895000", "161532.385000", "161533.875000", "161535.365000", "161536.855000", "161538.345000", "161539.835000", "161541.325000", "161542.815000", "161544.305000", "161545.795000", "161547.285000", "161548.775000", "161550.265000", "161551.755000", "161553.245000", "161554.735000", "161556.225000", "161557.715000", "161559.205000", "161600.695000", "161602.185000", "161603.675000", "161605.165000", "161606.655000", "161608.145000", "161609.635000", "161611.125000", "161612.615000", "161614.105000", "161615.595000", "161617.085000", "161618.575000", "161620.065000", "161621.555000", "161623.045000", "161624.535000", "161626.025000", "161627.515000", "161629.005000", "161630.495000", "161631.985000", "161633.475000", "161634.965000", "161636.455000", "161637.945000", "161639.435000", "161640.925000", "161642.415000", "161643.905000", "161645.395000", "161646.885000", "161648.375000", "161649.865000", "161651.355000", "161652.845000", "161654.335000", "161655.825000", "161657.315000", "161658.805000", "161700.295000", "161701.785000", "161703.275000", "161704.765000", "161706.255000", "161707.745000"],
      "ContentTime": ["161259.596000", "161259.600000", "161259.603000", "161259.615000", "161319.555000", "161319.559000", "161319.562000", "161319.565000", "161319.569000", "161319.572000", "161319.576000", "161319.579000", "161319.583000", "161319.586000", "161319.599000", "161319.602000", "161319.605000", "161319.608000", "161319.612000", "161319.615000", "161319.618000", "161319.622000", "161319.625000", "161319.628000", "161319.632000", "161339.555000", "161339.559000", "161339.562000", "161339.565000", "161339.569000", "161339.572000", "161339.575000", "161339.578000", "161339.582000", "161339.585000", "161339.588000", "161339.592000", "161339.595000", "161339.598000", "161339.602000", "161339.605000", "161339.608000", "161339.612000", "161339.615000", "161339.618000", "161359.556000", "161359.560000", "161359.563000", "161359.566000", "161359.570000", "161359.573000", "161359.576000", "161359.580000", "161359.583000", "161359.586000", "161359.590000", "161359.593000", "161359.596000", "161359.600000", "161359.603000", "161359.607000", "161359.610000", "161359.613000", "161359.617000", "161359.620000", "161419.556000", "161419.560000", "161419.563000", "161419.575000", "161419.578000", "161419.581000", "161419.585000", "161419.588000", "161419.591000", "161419.595000", "161419.598000", "161419.601000", "161419.605000", "161419.608000", "161419.611000", "161419.615000", "161419.618000", "161419.621000", "161419.625000", "161419.628000", "161419.631000", "161459.555000", "161459.559000", "161459.562000", "161459.565000", "161459.569000", "161459.572000", "161459.575000", "161459.579000", "161459.582000", "161459.585000", "161459.589000", "161459.592000", "161459.595000", "161459.599000", "161459.602000", "161459.605000", "161459.609000", "161459.612000", "161459.615000", "161459.619000", "161459.622000", "161459.625000", "161459.629000", "161459.632000", "161459.635000", "161459.639000", "161459.642000", "161459.645000", "161459.649000", "161459.652000", "161459.655000", "161459.659000", "161459.662000", "161539.555000", "161539.559000", "161539.562000", "161539.566000", "161539.569000", "161539.572000", "161539.576000", "161539.579000", "161539.582000", "161539.585000", "161539.589000", "161539.592000", "161539.595000", "161539.599000", "161539.602000", "161539.605000", "161539.609000", "161539.612000", "161539.615000", "161539.619000", "161539.622000", "161539.625000", "161539.628000", "161539.632000", "161539.635000", "161539.638000", "161539.642000", "161619.556000", "161619.560000", "161619.563000", "161619.567000", "161619.570000", "161619.574000", "161619.577000", "161619.597000", "161619.601000", "161619.604000", "161619.607000", "161619.611000", "161619.614000", "161619.617000", "161619.621000", "161619.624000", "161619.627000", "161619.638000", "161619.642000", "161619.645000", "161619.655000", "161619.660000", "161619.664000", "161619.678000", "161619.681000", "161619.685000", "161659.555000", "161659.559000", "161659.562000", "161659.566000", "161659.569000", "161659.573000", "161659.576000", "161659.579000", "161659.583000", "161659.586000", "161659.589000", "161659.593000", "161659.596000", "161659.599000", "161659.603000", "161659.606000", "161659.609000", "161659.613000", "161659.616000", "161659.619000", "161659.623000", "161659.626000", "161659.629000", "161659.633000", "161659.636000", "161659.639000", "161659.643000", "161710.391000", "161710.395000", "161710.398000", "161710.402000", "161710.405000", "161710.408000", "161710.412000", "161710.415000"],
      "InstanceCreationTime": ["161259.596000", "161259.600000", "161259.603000", "161259.615000", "161319.555000", "161319.559000", "161319.562000", "161319.565000", "161319.569000", "161319.572000", "161319.576000", "161319.579000", "161319.583000", "161319.586000", "161319.599000", "161319.602000", "161319.605000", "161319.608000", "161319.612000", "161319.615000", "161319.618000", "161319.622000", "161319.625000", "161319.628000", "161319.632000", "161339.555000", "161339.559000", "161339.562000", "161339.565000", "161339.569000", "161339.572000", "161339.575000", "161339.578000", "161339.582000", "161339.585000", "161339.588000", "161339.592000", "161339.595000", "161339.598000", "161339.602000", "161339.605000", "161339.608000", "161339.612000", "161339.615000", "161339.618000", "161359.556000", "161359.560000", "161359.563000", "161359.566000", "161359.570000", "161359.573000", "161359.576000", "161359.580000", "161359.583000", "161359.586000", "161359.590000", "161359.593000", "161359.596000", "161359.600000", "161359.603000", "161359.607000", "161359.610000", "161359.613000", "161359.617000", "161359.620000", "161419.556000", "161419.560000", "161419.563000", "161419.575000", "161419.578000", "161419.581000", "161419.585000", "161419.588000", "161419.591000", "161419.595000", "161419.598000", "161419.601000", "161419.605000", "161419.608000", "161419.611000", "161419.615000", "161419.618000", "161419.621000", "161419.625000", "161419.628000", "161419.631000", "161459.555000", "161459.559000", "161459.562000", "161459.565000", "161459.569000", "161459.572000", "161459.575000", "161459.579000", "161459.582000", "161459.585000", "161459.589000", "161459.592000", "161459.595000", "161459.599000", "161459.602000", "161459.605000", "161459.609000", "161459.612000", "161459.615000", "161459.619000", "161459.622000", "161459.625000", "161459.629000", "161459.632000", "161459.635000", "161459.639000", "161459.642000", "161459.645000", "161459.649000", "161459.652000", "161459.655000", "161459.659000", "161459.662000", "161539.555000", "161539.559000", "161539.562000", "161539.566000", "161539.569000", "161539.572000", "161539.576000", "161539.579000", "161539.582000", "161539.585000", "161539.589000", "161539.592000", "161539.595000", "161539.599000", "161539.602000", "161539.605000", "161539.609000", "161539.612000", "161539.615000", "161539.619000", "161539.622000", "161539.625000", "161539.628000", "161539.632000", "161539.635000", "161539.638000", "161539.642000", "161619.556000", "161619.560000", "161619.563000", "161619.567000", "161619.570000", "161619.574000", "161619.577000", "161619.597000", "161619.601000", "161619.604000", "161619.607000", "161619.611000", "161619.614000", "161619.617000", "161619.621000", "161619.624000", "161619.627000", "161619.638000", "161619.642000", "161619.645000", "161619.655000", "161619.660000", "161619.664000", "161619.678000", "161619.681000", "161619.685000", "161659.555000", "161659.559000", "161659.562000", "161659.566000", "161659.569000", "161659.573000", "161659.576000", "161659.579000", "161659.583000", "161659.586000", "161659.589000", "161659.593000", "161659.596000", "161659.599000", "161659.603000", "161659.606000", "161659.609000", "161659.613000", "161659.616000", "161659.619000", "161659.623000", "161659.626000", "161659.629000", "161659.633000", "161659.636000", "161659.639000", "161659.643000", "161710.391000", "161710.395000", "161710.398000", "161710.402000", "161710.405000", "161710.408000", "161710.412000", "161710.415000"],
      "InstanceNumber": [1, 2, 3, 4, 5, 6, 7, 8, 9, 10, 11, 12, 13, 14, 15, 16, 17, 18, 19, 20, 21, 22, 23, 24, 25, 26, 27, 28, 29, 30, 31, 32, 33, 34, 35, 36, 37, 38, 39, 40, 41, 42, 43, 44, 45, 46, 47, 48, 49, 50, 51, 52, 53, 54, 55, 56, 57, 58, 59, 60, 61, 62, 63, 64, 65, 66, 67, 68, 69, 70, 71, 72, 73, 74, 75, 76, 77, 78, 79, 80, 81, 82, 83, 84, 85, 86, 87, 88, 89, 90, 91, 92, 93, 94, 95, 96, 97, 98, 99, 100, 101, 102, 103, 104, 105, 106, 107, 108, 109, 110, 111, 112, 113, 114, 115, 116, 117, 118, 119, 120, 121, 122, 123, 124, 125, 126, 127, 128, 129, 130, 131, 132, 133, 134, 135, 136, 137, 138, 139, 140, 141, 142, 143, 144, 145, 146, 147, 148, 149, 150, 151, 152, 153, 154, 155, 156, 157, 158, 159, 160, 161, 162, 163, 164, 165, 166, 167, 168, 169, 170, 171, 172, 173, 174, 175, 176, 177, 178, 179, 180, 181, 182, 183, 184, 185, 186, 187, 188, 189, 190, 191, 192, 193, 194, 195, 196, 197, 198, 199, 200, 201, 202, 203, 204, 205, 206, 207],
      "LargestImagePixelValue": [46221, 45475, 43952, 44529, 44079, 43404, 43607, 43260, 43028, 42776, 44947, 43224, 42444, 42320, 41577, 42075, 42413, 41642, 42085, 42442, 41806, 42185, 42357, 42585, 42437, 42856, 42398, 43165, 42841, 43073, 42623, 42320, 42422, 42646, 42613, 42717, 43052, 42260, 42934, 42393, 43407, 42792, 42685, 42936, 43262, 42413, 43457, 42953, 42276, 42903, 43055, 42692, 42902, 43184, 42751, 42630, 43450, 42759, 42579, 42875, 42416, 43133, 43098, 43028, 42987, 42958, 43017, 43222, 43053, 42844, 42728, 42476, 43237, 42770, 43184, 42966, 42911, 42768, 42885, 43343, 43519, 42410, 42786, 42478, 42962, 42728, 42843, 43078, 43571, 43515, 43555, 43496, 42940, 43151, 43962, 43925, 43669, 43484, 43991, 43825, 44393, 43906, 44278, 44809, 44566, 44266, 44721, 45020, 44698, 44926, 45160, 44965, 43970, 44907, 45134, 44422, 44860, 44310, 44491, 44643, 45005, 44234, 43613, 43973, 44417, 44317, 44044, 44480, 43989, 44718, 44409, 43962, 44851, 44602, 44784, 45069, 45159, 44235, 45199, 44844, 44718, 44692, 44773, 43940, 43636, 44156, 44497, 44115, 44434, 43195, 43246, 42210, 42103, 43559, 43682, 43830, 43172, 43111, 44105, 44614, 44340, 44431, 44505, 44883, 44192, 45007, 44700, 44878, 44877, 44788, 44505, 44726, 44929, 45435, 45114, 45350, 44941, 45125, 45028, 44497, 44703, 45062, 45001, 44947, 44843, 44774, 44902, 44802, 45183, 44895, 44623, 44845, 44449, 44238, 42778, 44511, 44176, 43822, 44035, 44127, 43803, 43870, 43690, 44541, 43543, 43754, 44490],
      "WindowCenter": [10498.0, 10428.0, 10401.0, 10422.0, 10436.0, 10428.0, 10405.0, 10356.0, 10396.0, 10450.0, 10480.0, 10436.0, 10399.0, 10360.0, 10325.0, 10299.0, 10305.0, 10301.0, 10320.0, 10338.0, 10344.0, 10359.0, 10389.0, 10428.0, 10431.0, 10410.0, 10390.0, 10407.0, 10424.0, 10439.0, 10415.0, 10392.0, 10395.0, 10403.0, 10409.0, 10404.0, 10412.0, 10412.0, 10431.0, 10422.0, 10428.0, 10441.0, 10469.0, 10470.0, 10457.0, 10430.0, 10424.0, 10411.0, 10411.0, 10416.0, 10404.0, 10378.0, 10366.0, 10362.0, 10370.0, 10382.0, 10396.0, 10377.0, 10370.0, 10373.0, 10374.0, 10402.0, 10420.0, 10424.0, 10410.0, 10388.0, 10387.0, 10401.0, 10415.0, 10426.0, 10434.0, 10415.0, 10400.0, 10393.0, 10393.0, 10400.0, 10411.0, 10404.0, 10408.0, 10408.0, 10414.0, 10400.0, 10395.0, 10394.0, 10401.0, 10388.0, 10373.0, 10375.0, 10380.0, 10389.0, 10384.0, 10376.0, 10378.0, 10391.0, 10398.0, 10399.0, 10397.0, 10396.0, 10404.0, 10413.0, 10419.0, 10414.0, 10418.0, 10411.0, 10388.0, 10379.0, 10398.0, 10412.0, 10416.0, 10422.0, 10431.0, 10391.0, 10405.0, 10461.0, 10485.0, 10454.0, 10419.0, 10375.0, 10377.0, 10390.0, 10375.0, 10368.0, 10364.0, 10363.0, 10359.0, 10368.0, 10392.0, 10401.0, 10398.0, 10425.0, 10428.0, 10417.0, 10409.0, 10402.0, 10409.0, 10405.0, 10390.0, 10380.0, 10396.0, 10393.0, 10399.0, 10406.0, 10418.0, 10414.0, 10406.0, 10410.0, 10408.0, 10410.0, 10423.0, 10428.0, 10446.0, 10432.0, 10398.0, 10386.0, 10354.0, 10332.0, 10333.0, 10350.0, 10368.0, 10390.0, 10394.0, 10393.0, 10399.0, 10406.0, 10401.0, 10399.0, 10399.0, 10404.0, 10412.0, 10408.0, 10408.0, 10416.0, 10416.0, 10413.0, 10413.0, 10405.0, 10398.0, 10411.0, 10410.0, 10402.0, 10397.0, 10401.0, 10402.0, 10398.0, 10382.0, 10373.0, 10387.0, 10396.0, 10396.0, 10384.0, 10378.0, 10382.0, 10398.0, 10425.0, 10409.0, 10405.0, 10385.0, 10356.0, 10332.0, 10307.0, 10307.0, 10315.0, 10317.0, 10338.0, 10337.0, 10351.0, 10345.0],
      "WindowWidth": [22744.0, 22535.0, 22452.0, 22482.0, 22506.0, 22489.0, 22436.0, 22321.0, 22414.0, 22543.0, 22621.0, 22509.0, 22421.0, 22327.0, 22253.0, 22191.0, 22200.0, 22198.0, 22239.0, 22283.0, 22303.0, 22337.0, 22404.0, 22496.0, 22505.0, 22451.0, 22408.0, 22439.0, 22481.0, 22515.0, 22464.0, 22411.0, 22414.0, 22435.0, 22450.0, 22441.0, 22454.0, 22459.0, 22498.0, 22480.0, 22493.0, 22523.0, 22590.0, 22592.0, 22561.0, 22500.0, 22483.0, 22454.0, 22455.0, 22463.0, 22433.0, 22379.0, 22348.0, 22339.0, 22357.0, 22387.0, 22417.0, 22378.0, 22362.0, 22366.0, 22369.0, 22431.0, 22475.0, 22485.0, 22450.0, 22405.0, 22404.0, 22435.0, 22465.0, 22491.0, 22509.0, 22468.0, 22431.0, 22419.0, 22419.0, 22434.0, 22461.0, 22447.0, 22454.0, 22454.0, 22466.0, 22441.0, 22425.0, 22423.0, 22437.0, 22409.0, 22376.0, 22376.0, 22387.0, 22405.0, 22394.0, 22376.0, 22384.0, 22412.0, 22427.0, 22431.0, 22425.0, 22422.0, 22439.0, 22459.0, 22471.0, 22462.0, 22469.0, 22456.0, 22404.0, 22384.0, 22426.0, 22453.0, 22463.0, 22479.0, 22498.0, 22410.0, 22442.0, 22573.0, 22628.0, 22557.0, 22471.0, 22375.0, 22378.0, 22407.0, 22374.0, 22360.0, 22354.0, 22350.0, 22338.0, 22358.0, 22412.0, 22430.0, 22429.0, 22486.0, 22499.0, 22476.0, 22453.0, 22435.0, 22449.0, 22438.0, 22401.0, 22384.0, 22416.0, 22413.0, 22426.0, 22441.0, 22466.0, 22456.0, 22449.0, 22454.0, 22447.0, 22451.0, 22479.0, 22497.0, 22539.0, 22510.0, 22427.0, 22390.0, 22319.0, 22269.0, 22272.0, 22309.0, 22347.0, 22397.0, 22411.0, 22408.0, 22418.0, 22431.0, 22423.0, 22416.0, 22420.0, 22430.0, 22447.0, 22441.0, 22439.0, 22457.0, 22457.0, 22447.0, 22447.0, 22427.0, 22414.0, 22443.0, 22439.0, 22426.0, 22413.0, 22418.0, 22423.0, 22414.0, 22380.0, 22359.0, 22389.0, 22412.0, 22413.0, 22387.0, 22373.0, 22381.0, 22419.0, 22486.0, 22456.0, 22436.0, 22390.0, 22325.0, 22266.0, 22208.0, 22210.0, 22229.0, 22235.0, 22279.0, 22285.0, 22315.0, 22297.0]
    },
    "slices": {}
  }
}