{
  "AcquisitionMatrixPE": 104,
  "AcquisitionNumber": 1,
  "AcquisitionTime": "16:12:0.805000",
  "BandwidthPerPixelPhaseEncode": 17.17,
  "BaseResolution": 104,
  "BodyPartExamined": "BRAIN",
  "CoilCombinationMethod": "Sum of Squares",
  "ConsistencyInfo": "N4_VE11C_LATEST_20160120",
  "ConversionSoftware": "dcm2niix",
  "ConversionSoftwareVersion": "v1.0.20211006",
  "DerivedVendorReportedEchoSpacing": 0.000560011,
  "DeviceSerialNumber": "167006",
  "DwellTime": 2.1e-06,
  "EchoTime": 0.037,
  "EchoTime1": 0.037,
  "EchoTime2": 0.001,
  "EchoTrainLength": 104,
  "EffectiveEchoSpacing": 0.000560011,
  "FlipAngle": 52,
  "HeudiconvVersion": "0.10.0",
  "ImageComments": "Unaliased MB4/PE3/LB",
  "ImageOrientationPatientDICOM": [0.999489, -0.0319505, 0.000459721, 0.0294896, 0.916777, -0.39831],
  "ImageOrientationText": "Tra>Cor(-23.5)>Sag(-0.7)",
  "ImageType": [
    "ORIGINAL",
    "PRIMARY",
    "P",
    "MB",
    "ND",
    "MOSAIC",
    "PHASE"
],
  "ImagingFrequency": 123.259,
  "InPlanePhaseEncodingDirectionDICOM": "COL",
  "InstitutionAddress": "Chemin Queen-Mary 4565,Montreal,District,CA,H3W 1W5",
  "InstitutionName": "IUGM",
  "InstitutionalDepartmentName": "Department",
  "MRAcquisitionType": "2D",
  "MagneticFieldStrength": 3,
  "Manufacturer": "Siemens",
  "ManufacturersModelName": "Prisma_fit",
  "MatrixCoilMode": "SENSE",
  "Modality": "MR",
  "MultibandAccelerationFactor": 4,
  "PartialFourier": 1,
  "PatientPosition": "HFS",
  "PercentPhaseFOV": 100,
  "PercentSampling": 100,
  "PhaseEncodingDirection": "j",
  "PhaseEncodingSteps": 104,
  "PhaseResolution": 1,
  "PixelBandwidth": 2290,
  "ProcedureStepDescription": "games^gamepad",
  "ProtocolName": "func_task-gamepad_run-1",
  "PulseSequenceDetails": "%CustomerSeq%\\cmrr_mbep2d_bold",
  "ReceiveCoilActiveElements": "HC1-7;NC1,2",
  "ReceiveCoilName": "HeadNeck_64",
  "ReconMatrixPE": 104,
  "RepetitionTime": 1.49,
  "SAR": 0.0402344,
  "ScanOptions": "FS",
  "ScanningSequence": "EP",
  "SequenceName": "epfid2d1_104",
  "SequenceVariant": "SK\\SS",
  "SeriesDescription": "func_task-gamepad_run-1",
  "SeriesNumber": 11,
  "ShimSetting": [631, -7254, -8832, 507, 5, -201, -79, -24],
  "SliceThickness": 2,
  "SliceTiming": [0, 0.785, 0.0975, 0.8825, 0.1975, 0.98, 0.295, 1.0775, 0.3925, 1.1775, 0.49, 1.275, 0.5875, 1.3725, 0.6875, 0, 0.785, 0.0975, 0.8825, 0.1975, 0.98, 0.295, 1.0775, 0.3925, 1.1775, 0.49, 1.275, 0.5875, 1.3725, 0.6875, 0, 0.785, 0.0975, 0.8825, 0.1975, 0.98, 0.295, 1.0775, 0.3925, 1.1775, 0.49, 1.275, 0.5875, 1.3725, 0.6875, 0, 0.785, 0.0975, 0.8825, 0.1975, 0.98, 0.295, 1.0775, 0.3925, 1.1775, 0.49, 1.275, 0.5875, 1.3725, 0.6875],
  "SoftwareVersions": "syngo MR E11",
  "SpacingBetweenSlices": 2,
  "StationName": "MRC35049",
  "TaskName": "gamepad",
  "TotalReadoutTime": 0.0576811,
  "TxRefAmp": 243.649,
  "WipMemBlock": "db579d61-6b81-461e-9a06-4e5ebb29159d||Sequence: R016 ve11c/master r/e634e98; Dec 19 2017 11:00:25 by eja",
  "dcmmeta_affine": [
    [-1.9989787340164185, 0.05897923558950424, -0.024609452113509178, 104.50800323486328],
    [0.06390094012022018, 1.8335535526275635, -0.7962400913238525, -62.944480895996094],
    [0.0009194428566843271, 0.7966197729110718, 1.8345016241073608, -67.3835220336914],
    [0.0, 0.0, 0.0, 1.0]
],
  "dcmmeta_reorient_transform": [
    [0.0, -1.0, 0.0, 103.0],
    [1.0, 0.0, 0.0, 0.0],
    [0.0, 0.0, 1.0, 0.0],
    [0.0, 0.0, 0.0, 1.0]
],
  "dcmmeta_shape": [104, 104, 60, 207],
  "dcmmeta_slice_dim": 2,
  "dcmmeta_version": 0.6,
  "global": {
    "const": {
      "AcquisitionMatrix": [104, 0, 0, 104],
      "AngioFlag": "N",
      "BitsAllocated": 16,
      "BitsStored": 16,
      "BodyPartExamined": "BRAIN",
      "Columns": 832,
      "EchoNumbers": 1,
      "EchoTime": 37.0,
      "EchoTrainLength": 104,
      "FlipAngle": 52.0,
      "HighBit": 15,
      "ImageOrientationPatient": [0.99948934768381, -0.0319504698369, 0.00045972143799, 0.0294896183416, 0.9167767472545, -0.3983098769846],
      "ImagePositionPatient": [-859.6795552904, -770.06505784322, 304.3032224202],
      "ImageType": [
        "ORIGINAL",
        "PRIMARY",
        "P",
        "MB",
        "ND",
        "MOSAIC"
],
      "ImagedNucleus": "1H",
      "ImagingFrequency": 123.258892,
      "InPlanePhaseEncodingDirection": "COL",
      "LargestImagePixelValue": 4095,
      "MRAcquisitionType": "2D",
      "MagneticFieldStrength": 3.0,
      "Manufacturer": "SIEMENS",
      "ManufacturerModelName": "Prisma_fit",
      "Modality": "MR",
      "NumberOfAverages": 1.0,
      "NumberOfPhaseEncodingSteps": 104,
      "PercentPhaseFieldOfView": 100.0,
      "PercentSampling": 100.0,
      "PerformedProcedureStepStartTime": "160634.183000",
      "PhotometricInterpretation": "MONOCHROME2",
      "PixelBandwidth": 2290.0,
      "PixelRepresentation": 0,
      "PixelSpacing": [2.0, 2.0],
      "ProtocolName": "func_task-gamepad_run-1",
      "RepetitionTime": 1490.0,
      "RescaleIntercept": -4096.0,
      "RescaleSlope": 2.0,
      "RescaleType": "US",
      "Rows": 832,
      "SAR": 0.04023443908481,
      "SamplesPerPixel": 1,
      "ScanOptions": "FS",
      "ScanningSequence": "EP",
      "SequenceName": "epfid2d1_104",
      "SequenceVariant": [
        "SK",
        "SS"
],
      "SeriesDescription": "func_task-gamepad_run-1",
      "SeriesNumber": 11,
      "SeriesTime": "161259.638000",
      "SliceLocation": -38.03407556241,
      "SliceThickness": 2.0,
      "SmallestImagePixelValue": 0,
      "SoftwareVersions": "syngo MR E11",
      "SpacingBetweenSlices": 2.000000028419,
      "SpecificCharacterSet": "ISO_IR 100",
      "StudyID": "1",
      "StudyTime": "160634.094000",
      "TransmitCoilName": "Body",
      "VariableFlipAngleFlag": "N",
      "WindowCenterWidthExplanation": "Algo1",
      "dBdt": 0.0},
    "slices": {}
  },
  "time": {
    "samples": {
      "AcquisitionNumber": [1, 2, 3, 4, 5, 6, 7, 8, 9, 10, 11, 12, 13, 14, 15, 16, 17, 18, 19, 20, 21, 22, 23, 24, 25, 26, 27, 28, 29, 30, 31, 32, 33, 34, 35, 36, 37, 38, 39, 40, 41, 42, 43, 44, 45, 46, 47, 48, 49, 50, 51, 52, 53, 54, 55, 56, 57, 58, 59, 60, 61, 62, 63, 64, 65, 66, 67, 68, 69, 70, 71, 72, 73, 74, 75, 76, 77, 78, 79, 80, 81, 82, 83, 84, 85, 86, 87, 88, 89, 90, 91, 92, 93, 94, 95, 96, 97, 98, 99, 100, 101, 102, 103, 104, 105, 106, 107, 108, 109, 110, 111, 112, 113, 114, 115, 116, 117, 118, 119, 120, 121, 122, 123, 124, 125, 126, 127, 128, 129, 130, 131, 132, 133, 134, 135, 136, 137, 138, 139, 140, 141, 142, 143, 144, 145, 146, 147, 148, 149, 150, 151, 152, 153, 154, 155, 156, 157, 158, 159, 160, 161, 162, 163, 164, 165, 166, 167, 168, 169, 170, 171, 172, 173, 174, 175, 176, 177, 178, 179, 180, 181, 182, 183, 184, 185, 186, 187, 188, 189, 190, 191, 192, 193, 194, 195, 196, 197, 198, 199, 200, 201, 202, 203, 204, 205, 206, 207],
      "AcquisitionTime": ["161200.805000", "161202.295000", "161203.785000", "161205.275000", "161206.765000", "161208.255000", "161209.745000", "161211.235000", "161212.725000", "161214.215000", "161215.705000", "161217.195000", "161218.685000", "161220.175000", "161221.665000", "161223.155000", "161224.645000", "161226.135000", "161227.625000", "161229.115000", "161230.605000", "161232.095000", "161233.585000", "161235.075000", "161236.565000", "161238.055000", "161239.545000", "161241.035000", "161242.525000", "161244.015000", "161245.505000", "161246.995000", "161248.485000", "161249.975000", "161251.465000", "161252.955000", "161254.445000", "161255.935000", "161257.425000", "161258.915000", "161300.405000", "161301.895000", "161303.385000", "161304.875000", "161306.365000", "161307.855000", "161309.345000", "161310.835000", "161312.325000", "161313.815000", "161315.305000", "161316.795000", "161318.285000", "161319.775000", "161321.265000", "161322.755000", "161324.245000", "161325.735000", "161327.225000", "161328.715000", "161330.205000", "161331.695000", "161333.185000", "161334.675000", "161336.165000", "161337.655000", "161339.145000", "161340.635000", "161342.125000", "161343.615000", "161345.105000", "161346.595000", "161348.085000", "161349.575000", "161351.065000", "161352.555000", "161354.045000", "161355.535000", "161357.025000", "161358.515000", "161400.005000", "161401.495000", "161402.985000", "161404.475000", "161405.965000", "161407.455000", "161408.945000", "161410.435000", "161411.925000", "161413.415000", "161414.905000", "161416.395000", "161417.885000", "161419.375000", "161420.865000", "161422.355000", "161423.845000", "161425.335000", "161426.825000", "161428.315000", "161429.805000", "161431.295000", "161432.785000", "161434.275000", "161435.765000", "161437.255000", "161438.745000", "161440.235000", "161441.725000", "161443.215000", "161444.705000", "161446.195000", "161447.685000", "161449.175000", "161450.665000", "161452.155000", "161453.645000", "161455.135000", "161456.625000", "161458.115000", "161459.605000", "161501.095000", "161502.585000", "161504.075000", "161505.565000", "161507.055000", "161508.545000", "161510.035000", "161511.525000", "161513.015000", "161514.505000", "161515.995000", "161517.485000", "161518.975000", "161520.465000", "161521.955000", "161523.445000", "161524.935000", "161526.425000", "161527.915000", "161529.405000", "161530.895000", "161532.385000", "161533.875000", "161535.365000", "161536.855000", "161538.345000", "161539.835000", "161541.325000", "161542.815000", "161544.305000", "161545.795000", "161547.285000", "161548.775000", "161550.265000", "161551.755000", "161553.245000", "161554.735000", "161556.225000", "161557.715000", "161559.205000", "161600.695000", "161602.185000", "161603.675000", "161605.165000", "161606.655000", "161608.145000", "161609.635000", "161611.125000", "161612.615000", "161614.105000", "161615.595000", "161617.085000", "161618.575000", "161620.065000", "161621.555000", "161623.045000", "161624.535000", "161626.025000", "161627.515000", "161629.005000", "161630.495000", "161631.985000", "161633.475000", "161634.965000", "161636.455000", "161637.945000", "161639.435000", "161640.925000", "161642.415000", "161643.905000", "161645.395000", "161646.885000", "161648.375000", "161649.865000", "161651.355000", "161652.845000", "161654.335000", "161655.825000", "161657.315000", "161658.805000", "161700.295000", "161701.785000", "161703.275000", "161704.765000", "161706.255000", "161707.745000"],
      "ContentTime": ["161259.640000", "161259.643000", "161259.646000", "161259.648000", "161319.689000", "161319.692000", "161319.695000", "161319.697000", "161319.699000", "161319.702000", "161319.714000", "161319.716000", "161319.718000", "161319.721000", "161319.723000", "161319.726000", "161319.728000", "161319.731000", "161319.733000", "161319.736000", "161319.738000", "161319.741000", "161319.743000", "161319.746000", "161319.748000", "161339.660000", "161339.663000", "161339.665000", "161339.668000", "161339.670000", "161339.673000", "161339.681000", "161339.683000", "161339.686000", "161339.688000", "161339.691000", "161339.693000", "161339.696000", "161339.698000", "161339.701000", "161339.703000", "161339.706000", "161339.708000", "161339.711000", "161339.713000", "161359.677000", "161359.679000", "161359.682000", "161359.684000", "161359.687000", "161359.689000", "161359.692000", "161359.694000", "161359.697000", "161359.699000", "161359.702000", "161359.704000", "161359.706000", "161359.709000", "161359.711000", "161359.714000", "161359.716000", "161359.719000", "161359.721000", "161359.724000", "161419.682000", "161419.685000", "161419.687000", "161419.699000", "161419.702000", "161419.704000", "161419.707000", "161419.709000", "161419.712000", "161419.714000", "161419.717000", "161419.719000", "161419.722000", "161419.724000", "161419.726000", "161419.729000", "161419.732000", "161419.734000", "161419.737000", "161419.740000", "161419.742000", "161459.725000", "161459.728000", "161459.730000", "161459.733000", "161459.735000", "161459.738000", "161459.740000", "161459.743000", "161459.745000", "161459.748000", "161459.750000", "161459.753000", "161459.755000", "161459.758000", "161459.760000", "161459.763000", "161459.770000", "161459.772000", "161459.775000", "161459.777000", "161459.780000", "161459.782000", "161459.785000", "161459.787000", "161459.790000", "161459.792000", "161459.795000", "161459.797000", "161459.800000", "161459.802000", "161459.805000", "161459.807000", "161459.810000", "161539.698000", "161539.701000", "161539.703000", "161539.706000", "161539.708000", "161539.711000", "161539.713000", "161539.716000", "161539.718000", "161539.721000", "161539.723000", "161539.726000", "161539.728000", "161539.731000", "161539.740000", "161539.742000", "161539.745000", "161539.747000", "161539.750000", "161539.753000", "161539.755000", "161539.758000", "161539.760000", "161539.763000", "161539.765000", "161539.768000", "161539.771000", "161619.758000", "161619.761000", "161619.763000", "161619.766000", "161619.769000", "161619.771000", "161619.774000", "161619.776000", "161619.779000", "161619.781000", "161619.784000", "161619.786000", "161619.789000", "161619.791000", "161619.794000", "161619.796000", "161619.799000", "161619.801000", "161619.804000", "161619.806000", "161619.809000", "161619.811000", "161619.814000", "161619.816000", "161619.819000", "161619.821000", "161659.692000", "161659.695000", "161659.698000", "161659.700000", "161659.703000", "161659.705000", "161659.708000", "161659.710000", "161659.713000", "161659.715000", "161659.718000", "161659.720000", "161659.723000", "161659.725000", "161659.727000", "161659.730000", "161659.732000", "161659.735000", "161659.737000", "161659.741000", "161659.743000", "161659.746000", "161659.748000", "161659.751000", "161659.753000", "161659.756000", "161659.758000", "161710.487000", "161710.490000", "161710.492000", "161710.495000", "161710.497000", "161710.500000", "161710.502000", "161710.505000"],
      "InstanceCreationTime": ["161259.640000", "161259.643000", "161259.646000", "161259.648000", "161319.689000", "161319.692000", "161319.695000", "161319.697000", "161319.699000", "161319.702000", "161319.714000", "161319.716000", "161319.718000", "161319.721000", "161319.723000", "161319.726000", "161319.728000", "161319.731000", "161319.733000", "161319.736000", "161319.738000", "161319.741000", "161319.743000", "161319.746000", "161319.748000", "161339.660000", "161339.663000", "161339.665000", "161339.668000", "161339.670000", "161339.673000", "161339.681000", "161339.683000", "161339.686000", "161339.688000", "161339.691000", "161339.693000", "161339.696000", "161339.698000", "161339.701000", "161339.703000", "161339.706000", "161339.708000", "161339.711000", "161339.713000", "161359.677000", "161359.679000", "161359.682000", "161359.684000", "161359.687000", "161359.689000", "161359.692000", "161359.694000", "161359.697000", "161359.699000", "161359.702000", "161359.704000", "161359.706000", "161359.709000", "161359.711000", "161359.714000", "161359.716000", "161359.719000", "161359.721000", "161359.724000", "161419.682000", "161419.685000", "161419.687000", "161419.699000", "161419.702000", "161419.704000", "161419.707000", "161419.709000", "161419.712000", "161419.714000", "161419.717000", "161419.719000", "161419.722000", "161419.724000", "161419.726000", "161419.729000", "161419.732000", "161419.734000", "161419.737000", "161419.740000", "161419.742000", "161459.725000", "161459.728000", "161459.730000", "161459.733000", "161459.735000", "161459.738000", "161459.740000", "161459.743000", "161459.745000", "161459.748000", "161459.750000", "161459.753000", "161459.755000", "161459.758000", "161459.760000", "161459.763000", "161459.770000", "161459.772000", "161459.775000", "161459.777000", "161459.780000", "161459.782000", "161459.785000", "161459.787000", "161459.790000", "161459.792000", "161459.795000", "161459.797000", "161459.800000", "161459.802000", "161459.805000", "161459.807000", "161459.810000", "161539.698000", "161539.701000", "161539.703000", "161539.706000", "161539.708000", "161539.711000", "161539.713000", "161539.716000", "161539.718000", "161539.721000", "161539.723000", "161539.726000", "161539.728000", "161539.731000", "161539.740000", "161539.742000", "161539.745000", "161539.747000", "161539.750000", "161539.753000", "161539.755000", "161539.758000", "161539.760000", "161539.763000", "161539.765000", "161539.768000", "161539.771000", "161619.758000", "161619.761000", "161619.763000", "161619.766000", "161619.769000", "161619.771000", "161619.774000", "161619.776000", "161619.779000", "161619.781000", "161619.784000", "161619.786000", "161619.789000", "161619.791000", "161619.794000", "161619.796000", "161619.799000", "161619.801000", "161619.804000", "161619.806000", "161619.809000", "161619.811000", "161619.814000", "161619.816000", "161619.819000", "161619.821000", "161659.692000", "161659.695000", "161659.698000", "161659.700000", "161659.703000", "161659.705000", "161659.708000", "161659.710000", "161659.713000", "161659.715000", "161659.718000", "161659.720000", "161659.723000", "161659.725000", "161659.727000", "161659.730000", "161659.732000", "161659.735000", "161659.737000", "161659.741000", "161659.743000", "161659.746000", "161659.748000", "161659.751000", "161659.753000", "161659.756000", "161659.758000", "161710.487000", "161710.490000", "161710.492000", "161710.495000", "161710.497000", "161710.500000", "161710.502000", "161710.505000"],
      "InstanceNumber": [1, 2, 3, 4, 5, 6, 7, 8, 9, 10, 11, 12, 13, 14, 15, 16, 17, 18, 19, 20, 21, 22, 23, 24, 25, 26, 27, 28, 29, 30, 31, 32, 33, 34, 35, 36, 37, 38, 39, 40, 41, 42, 43, 44, 45, 46, 47, 48, 49, 50, 51, 52, 53, 54, 55, 56, 57, 58, 59, 60, 61, 62, 63, 64, 65, 66, 67, 68, 69, 70, 71, 72, 73, 74, 75, 76, 77, 78, 79, 80, 81, 82, 83, 84, 85, 86, 87, 88, 89, 90, 91, 92, 93, 94, 95, 96, 97, 98, 99, 100, 101, 102, 103, 104, 105, 106, 107, 108, 109, 110, 111, 112, 113, 114, 115, 116, 117, 118, 119, 120, 121, 122, 123, 124, 125, 126, 127, 128, 129, 130, 131, 132, 133, 134, 135, 136, 137, 138, 139, 140, 141, 142, 143, 144, 145, 146, 147, 148, 149, 150, 151, 152, 153, 154, 155, 156, 157, 158, 159, 160, 161, 162, 163, 164, 165, 166, 167, 168, 169, 170, 171, 172, 173, 174, 175, 176, 177, 178, 179, 180, 181, 182, 183, 184, 185, 186, 187, 188, 189, 190, 191, 192, 193, 194, 195, 196, 197, 198, 199, 200, 201, 202, 203, 204, 205, 206, 207],
      "WindowCenter": [4838.0, 4832.0, 4840.0, 4806.0, 4806.0, 4844.0, 4872.0, 4846.0, 4802.0, 4802.0, 4806.0, 4872.0, 4852.0, 4854.0, 4848.0, 4850.0, 4846.0, 4836.0, 4836.0, 4806.0, 4836.0, 4844.0, 4832.0, 4834.0, 4872.0, 4852.0, 4854.0, 4850.0, 4844.0, 4846.0, 4842.0, 4840.0, 4840.0, 4840.0, 4848.0, 4850.0, 4844.0, 4848.0, 4852.0, 4846.0, 4836.0, 4846.0, 4836.0, 4846.0, 4842.0, 4846.0, 4840.0, 4838.0, 4848.0, 4848.0, 4846.0, 4850.0, 4850.0, 4840.0, 4840.0, 4846.0, 4834.0, 4848.0, 4848.0, 4848.0, 4848.0, 4844.0, 4840.0, 4848.0, 4848.0, 4848.0, 4846.0, 4844.0, 4846.0, 4838.0, 4842.0, 4850.0, 4848.0, 4848.0, 4846.0, 4846.0, 4844.0, 4844.0, 4846.0, 4812.0, 4836.0, 4846.0, 4844.0, 4840.0, 4868.0, 4846.0, 4848.0, 4838.0, 4844.0, 4846.0, 4846.0, 4834.0, 4846.0, 4842.0, 4842.0, 4846.0, 4848.0, 4848.0, 4840.0, 4842.0, 4848.0, 4840.0, 4834.0, 4870.0, 4838.0, 4848.0, 4846.0, 4844.0, 4842.0, 4870.0, 4870.0, 4810.0, 4844.0, 4838.0, 4848.0, 4848.0, 4838.0, 4844.0, 4842.0, 4846.0, 4806.0, 4844.0, 4846.0, 4846.0, 4842.0, 4844.0, 4844.0, 4840.0, 4840.0, 4806.0, 4840.0, 4848.0, 4840.0, 4848.0, 4848.0, 4844.0, 4844.0, 4842.0, 4836.0, 4844.0, 4844.0, 4838.0, 4846.0, 4846.0, 4872.0, 4848.0, 4850.0, 4844.0, 4800.0, 4800.0, 4832.0, 4850.0, 4850.0, 4852.0, 4848.0, 4846.0, 4848.0, 4850.0, 4842.0, 4844.0, 4848.0, 4852.0, 4848.0, 4848.0, 4850.0, 4838.0, 4842.0, 4850.0, 4844.0, 4852.0, 4848.0, 4848.0, 4848.0, 4846.0, 4850.0, 4844.0, 4850.0, 4848.0, 4848.0, 4850.0, 4848.0, 4844.0, 4850.0, 4848.0, 4844.0, 4852.0, 4850.0, 4848.0, 4850.0, 4848.0, 4852.0, 4846.0, 4806.0, 4806.0, 4850.0, 4868.0, 4848.0, 4870.0, 4846.0, 4842.0, 4842.0, 4838.0, 4836.0, 4808.0, 4838.0, 4842.0, 4848.0],
      "WindowWidth": [18638.0, 18636.0, 18642.0, 18596.0, 18602.0, 18644.0, 18674.0, 18638.0, 18594.0, 18592.0, 18596.0, 18680.0, 18634.0, 18628.0, 18634.0, 18636.0, 18640.0, 18632.0, 18632.0, 18598.0, 18632.0, 18642.0, 18632.0, 18634.0, 18662.0, 18634.0, 18640.0, 18636.0, 18642.0, 18640.0, 18632.0, 18640.0, 18638.0, 18636.0, 18636.0, 18642.0, 18636.0, 18638.0, 18636.0, 18636.0, 18634.0, 18636.0, 18632.0, 18644.0, 18638.0, 18638.0, 18636.0, 18636.0, 18638.0, 18646.0, 18640.0, 18640.0, 18638.0, 18636.0, 18636.0, 18640.0, 18632.0, 18640.0, 18636.0, 18634.0, 18636.0, 18636.0, 18636.0, 18640.0, 18638.0, 18642.0, 18636.0, 18634.0, 18630.0, 18630.0, 18636.0, 18632.0, 18642.0, 18634.0, 18634.0, 18640.0, 18636.0, 18636.0, 18634.0, 18600.0, 18630.0, 18640.0, 18634.0, 18638.0, 18670.0, 18642.0, 18638.0, 18632.0, 18640.0, 18632.0, 18642.0, 18630.0, 18642.0, 18634.0, 18638.0, 18632.0, 18644.0, 18634.0, 18636.0, 18634.0, 18632.0, 18634.0, 18632.0, 18672.0, 18628.0, 18638.0, 18638.0, 18634.0, 18638.0, 18668.0, 18668.0, 18600.0, 18640.0, 18634.0, 18638.0, 18632.0, 18632.0, 18638.0, 18634.0, 18638.0, 18598.0, 18638.0, 18630.0, 18630.0, 18640.0, 18636.0, 18628.0, 18634.0, 18636.0, 18596.0, 18634.0, 18632.0, 18636.0, 18640.0, 18634.0, 18632.0, 18638.0, 18634.0, 18634.0, 18638.0, 18634.0, 18636.0, 18640.0, 18636.0, 18668.0, 18638.0, 18640.0, 18636.0, 18596.0, 18596.0, 18638.0, 18642.0, 18632.0, 18624.0, 18634.0, 18638.0, 18636.0, 18638.0, 18636.0, 18632.0, 18638.0, 18634.0, 18632.0, 18632.0, 18630.0, 18632.0, 18636.0, 18636.0, 18638.0, 18634.0, 18636.0, 18634.0, 18632.0, 18644.0, 18640.0, 18640.0, 18634.0, 18636.0, 18634.0, 18634.0, 18634.0, 18632.0, 18638.0, 18632.0, 18634.0, 18640.0, 18638.0, 18634.0, 18626.0, 18622.0, 18630.0, 18632.0, 18598.0, 18594.0, 18642.0, 18676.0, 18644.0, 18670.0, 18642.0, 18640.0, 18640.0, 18634.0, 18632.0, 18594.0, 18632.0, 18638.0, 18642.0]
    },
    "slices": {}
  }
}